-2.862025797367095947e-01,-5.241820812225341797e-01,-1.800491809844970703e-01,-8.201705664396286011e-02,0.000000000000000000e+00,8.709113001823425293e-01,-1.100744009017944336e+00,5.240336060523986816e-01,-1.145498156547546387e-01,-5.130870342254638672e-01,-9.838416576385498047e-01,4.700497984886169434e-01,6.713516712188720703e-01,5.335907936096191406e-01,0.000000000000000000e+00,-7.818050384521484375e-01,-3.277762830257415771e-01,-9.370638728141784668e-01,-7.493055462837219238e-01,-4.768308997154235840e-02,1.916332840919494629e-01,4.737776815891265869e-01,-4.437243938446044922e-01,-3.576498925685882568e-01,1.083180904388427734e+00,-3.196556270122528076e-01,9.724183380603790283e-02,1.057105541229248047e+00,-2.253696024417877197e-01,-2.158286124467849731e-01,0.000000000000000000e+00
-5.153433084487915039e-01,-1.171155720949172974e-01,-9.837730526924133301e-01,5.137919187545776367e-01,1.632947474718093872e-01,-3.478030562400817871e-01,9.939158558845520020e-01,0.000000000000000000e+00,-5.871980786323547363e-01,-7.735041379928588867e-01,9.866929054260253906e-01,5.218170881271362305e-01,-5.815117955207824707e-01,-4.120041728019714355e-01,2.074598073959350586e-01,-6.557652950286865234e-01,1.142002820968627930e+00,-4.049640893936157227e-01,-4.186663627624511719e-01,-1.606839597225189209e-01,7.668141722679138184e-01,1.207121253013610840e+00,-4.323826134204864502e-01,-1.092967465519905090e-01,-1.444974839687347412e-01,1.088067531585693359e+00,-9.994447827339172363e-01,1.169300079345703125e+00,6.443093419075012207e-01,-4.683893918991088867e-01,1.000000000000000000e+00
2.516333572566509247e-02,0.000000000000000000e+00,1.101591825485229492e+00,-5.990691184997558594e-01,-9.278901815414428711e-01,4.337145388126373291e-02,-3.710840940475463867e-01,-4.211939275264739990e-01,-2.843923270702362061e-01,-1.584606766700744629e-01,-7.188386749476194382e-03,8.569136857986450195e-01,-4.707188010215759277e-01,-3.957399129867553711e-01,0.000000000000000000e+00,3.919455781579017639e-02,-1.563998013734817505e-01,-3.692553937435150146e-01,-1.009892150759696960e-01,6.947667598724365234e-01,-5.163604021072387695e-01,9.333928227424621582e-01,-3.434724807739257812e-01,-4.087967872619628906e-01,7.916504144668579102e-01,-2.619541585445404053e-01,-2.700385153293609619e-01,-7.455620169639587402e-01,-1.249496191740036011e-01,8.280106186866760254e-01,0.000000000000000000e+00
1.382094860076904297e+00,9.895176291465759277e-01,1.098686695098876953e+00,5.706324577331542969e-01,-1.444685697555541992e+00,0.000000000000000000e+00,4.937346279621124268e-01,-3.252246379852294922e-01,2.235333174467086792e-01,0.000000000000000000e+00,5.984854698181152344e-02,-7.267545461654663086e-01,-8.634966611862182617e-01,1.636198312044143677e-01,-4.155864119529724121e-01,7.500972747802734375e-01,-9.152934551239013672e-01,5.936386585235595703e-01,0.000000000000000000e+00,-4.740606248378753662e-01,-7.763897180557250977e-01,-2.473829090595245361e-01,-1.550783395767211914e+00,2.819683551788330078e-01,-5.436700582504272461e-01,0.000000000000000000e+00,-5.845832824707031250e-01,-9.883227199316024780e-02,4.988000392913818359e-01,-8.766921162605285645e-01,1.000000000000000000e+00
-1.082495450973510742e+00,-6.752880811691284180e-01,1.874026358127593994e-01,3.618327975273132324e-01,7.387347817420959473e-01,1.143838405609130859e+00,1.716250330209732056e-01,-4.477933645248413086e-01,-5.199341103434562683e-02,9.752672314643859863e-01,3.407673239707946777e-01,0.000000000000000000e+00,0.000000000000000000e+00,1.613548547029495239e-01,5.284850597381591797e-01,3.354055583477020264e-01,-5.377761721611022949e-01,1.476978808641433716e-01,9.587132334709167480e-01,-5.512796044349670410e-01,-8.270019292831420898e-02,-1.030080676078796387e+00,-1.756571531295776367e-01,6.903614401817321777e-01,0.000000000000000000e+00,8.465028405189514160e-01,1.239183917641639709e-01,0.000000000000000000e+00,9.125852584838867188e-02,-6.104180216789245605e-01,1.000000000000000000e+00
5.587080717086791992e-01,-7.859361767768859863e-01,7.453160881996154785e-01,-7.825189828872680664e-02,0.000000000000000000e+00,-1.238537907600402832e+00,6.018171831965446472e-02,-1.771886050701141357e-01,-7.417237162590026855e-01,-7.527350187301635742e-01,-3.747504353523254395e-01,2.284835278987884521e-01,-9.348532557487487793e-01,2.930122315883636475e-01,-1.543871611356735229e-01,-5.211537480354309082e-01,1.168709874153137207e+00,-5.864238142967224121e-01,-5.964958667755126953e-01,-2.288844995200634003e-02,6.623553484678268433e-02,2.166559547185897827e-01,-1.255587577819824219e+00,3.228272795677185059e-01,0.000000000000000000e+00,5.040503293275833130e-02,-1.893453896045684814e-01,-1.272667646408081055e-01,3.470055758953094482e-01,-9.464789927005767822e-02,1.000000000000000000e+00
-1.344825923442840576e-01,-4.862303435802459717e-01,2.841866910457611084e-01,-1.556534618139266968e-01,7.122378945350646973e-01,-5.641036033630371094e-01,-5.803840160369873047e-01,-5.420792698860168457e-01,1.872224211692810059e-01,2.946208715438842773e-01,-5.572616457939147949e-01,2.408459186553955078e-01,-1.672174930572509766e-01,-3.270576894283294678e-01,-5.391260981559753418e-01,1.744750589132308960e-01,1.396300315856933594e+00,1.998854242265224457e-02,-2.492057681083679199e-01,8.220328092575073242e-01,7.025690078735351562e-01,6.008251309394836426e-01,-1.300540685653686523e+00,1.261497020721435547e+00,0.000000000000000000e+00,-5.937682986259460449e-01,4.919879436492919922e-01,2.415380626916885376e-02,1.234539985656738281e+00,0.000000000000000000e+00,1.000000000000000000e+00
-9.172458648681640625e-01,0.000000000000000000e+00,-3.996859788894653320e-01,8.592427372932434082e-01,-4.755631685256958008e-01,1.553280949592590332e-01,-5.820906162261962891e-01,5.946733355522155762e-01,-8.563539981842041016e-01,-3.775315880775451660e-01,3.386824131011962891e-01,8.389944434165954590e-01,-6.521034836769104004e-01,0.000000000000000000e+00,2.955804467201232910e-01,-7.412103414535522461e-01,9.968646764755249023e-01,1.779589354991912842e-01,-4.680353701114654541e-01,7.487631440162658691e-01,1.127853155136108398e+00,5.490890741348266602e-01,-1.256638169288635254e+00,2.226594462990760803e-02,8.517320752143859863e-01,5.464218258857727051e-01,2.108053117990493774e-01,6.471230387687683105e-01,8.258415460586547852e-01,-6.182121634483337402e-01,1.000000000000000000e+00
-5.510478466749191284e-02,2.545627057552337646e-01,-2.299484424293041229e-02,2.697585821151733398e-01,-6.252079010009765625e-01,0.000000000000000000e+00,6.986374258995056152e-01,5.361831188201904297e-01,3.646977543830871582e-01,6.355994343757629395e-01,-6.034447550773620605e-01,-5.357031226158142090e-01,-1.926018595695495605e-01,-9.271664619445800781e-01,6.171832084655761719e-01,-3.520667552947998047e-02,0.000000000000000000e+00,3.563540875911712646e-01,1.655135154724121094e+00,4.687315821647644043e-01,5.724266171455383301e-01,-4.514865279197692871e-01,0.000000000000000000e+00,-8.362906426191329956e-02,0.000000000000000000e+00,-1.062973976135253906e+00,7.070533037185668945e-01,-1.450648188591003418e+00,4.736950695514678955e-01,-5.074536800384521484e-01,1.000000000000000000e+00
-9.557306170463562012e-01,3.109913785010576248e-03,-4.543085992336273193e-01,0.000000000000000000e+00,-4.739570915699005127e-01,7.703946828842163086e-01,8.933210968971252441e-01,-8.718504905700683594e-01,0.000000000000000000e+00,-5.736951231956481934e-01,-9.967426955699920654e-02,5.670763850212097168e-01,-4.768246710300445557e-01,-4.297539889812469482e-01,-1.331718325614929199e+00,-3.879331648349761963e-01,5.317231416702270508e-01,0.000000000000000000e+00,0.000000000000000000e+00,4.793433845043182373e-01,3.365804255008697510e-01,4.786122143268585205e-01,-2.655561566352844238e-01,0.000000000000000000e+00,-7.954994589090347290e-02,-4.623614549636840820e-01,-3.027903139591217041e-01,9.447250962257385254e-01,1.637009233236312866e-01,-1.567277759313583374e-01,1.000000000000000000e+00
-5.934354066848754883e-01,-7.795755267143249512e-01,0.000000000000000000e+00,9.441985487937927246e-01,1.086829826235771179e-01,-1.898474246263504028e-01,6.230993866920471191e-01,-2.439682632684707642e-01,2.747240960597991943e-01,-2.099457532167434692e-01,-5.102579593658447266e-01,7.212205529212951660e-01,5.733278393745422363e-02,7.109972238540649414e-01,-5.602144598960876465e-01,6.768134832382202148e-01,-5.905154943466186523e-01,-4.734863042831420898e-01,4.974725544452667236e-01,9.748386591672897339e-02,-7.742184400558471680e-01,3.027627468109130859e-01,-3.645322024822235107e-01,0.000000000000000000e+00,4.777998924255371094e-01,6.239297986030578613e-01,-3.907036781311035156e-02,4.123590588569641113e-01,-2.865977585315704346e-01,4.327785372734069824e-01,1.000000000000000000e+00
-8.205065727233886719e-01,-4.982648491859436035e-01,4.044674634933471680e-01,1.371320366859436035e+00,-6.303682327270507812e-01,4.829118251800537109e-01,-1.153082847595214844e+00,5.939795970916748047e-01,-9.900235533714294434e-01,-4.517916440963745117e-01,-1.037826538085937500e+00,1.029201984405517578e+00,-7.187658455222845078e-03,0.000000000000000000e+00,0.000000000000000000e+00,-7.720956802368164062e-01,2.033626288175582886e-01,-2.736521363258361816e-01,6.384723782539367676e-01,3.858563601970672607e-01,7.445592880249023438e-01,-1.061840206384658813e-01,-1.530783772468566895e+00,2.743782401084899902e-01,1.486246109008789062e+00,-4.330532848834991455e-01,4.697221219539642334e-01,0.000000000000000000e+00,1.819803416728973389e-01,-8.461303114891052246e-01,1.000000000000000000e+00
-3.379978537559509277e-01,-1.792958080768585205e-01,0.000000000000000000e+00,-7.598317265510559082e-01,-3.540364503860473633e-01,0.000000000000000000e+00,7.283950448036193848e-01,-5.265303254127502441e-01,-2.008809298276901245e-01,-2.130428850650787354e-01,0.000000000000000000e+00,-4.502012431621551514e-01,1.019952073693275452e-01,-3.992463946342468262e-01,-2.042722254991531372e-01,-4.921752214431762695e-01,2.578325569629669189e-01,-4.041866362094879150e-01,-1.690702438354492188e-01,-5.222597718238830566e-01,-1.338193845003843307e-02,3.800041228532791138e-02,5.713214725255966187e-02,-4.998789727687835693e-01,-2.366401441395282745e-02,2.763406336307525635e-01,-4.929377734661102295e-01,3.004077635705471039e-02,-2.053140997886657715e-01,0.000000000000000000e+00,0.000000000000000000e+00
2.676807343959808350e-01,-2.564103901386260986e-01,7.164015173912048340e-01,-6.811298131942749023e-01,7.034550309181213379e-01,5.507850050926208496e-01,1.102895140647888184e+00,3.804453015327453613e-01,0.000000000000000000e+00,-1.902158409357070923e-01,-8.817211538553237915e-02,0.000000000000000000e+00,-9.161010384559631348e-01,0.000000000000000000e+00,-1.776201367378234863e+00,-1.193052768707275391e+00,1.015674829483032227e+00,0.000000000000000000e+00,-3.855729103088378906e-01,1.477911472320556641e-01,1.044682383537292480e+00,0.000000000000000000e+00,1.411153674125671387e-01,1.067069545388221741e-01,5.944742560386657715e-01,1.482485771179199219e+00,9.780262112617492676e-01,6.046380400657653809e-01,1.222645282745361328e+00,0.000000000000000000e+00,1.000000000000000000e+00
1.614794880151748657e-01,-8.749908208847045898e-01,6.530547142028808594e-02,6.104588881134986877e-02,3.102245628833770752e-01,-2.661599218845367432e-02,-3.296956121921539307e-01,-3.147370815277099609e-01,5.758951902389526367e-01,-3.646951615810394287e-01,-5.527988076210021973e-01,5.770025402307510376e-02,-3.822492659091949463e-01,-4.271371364593505859e-01,-2.619390487670898438e-01,-4.938374087214469910e-02,0.000000000000000000e+00,2.106836736202239990e-01,-3.272857069969177246e-01,-6.945875287055969238e-01,-3.543218076229095459e-01,0.000000000000000000e+00,-4.794698059558868408e-01,4.001309275627136230e-01,-6.611239314079284668e-01,-3.038837909698486328e-01,-4.179767668247222900e-01,-7.408928871154785156e-02,2.677776813507080078e-01,1.803887486457824707e-01,1.000000000000000000e+00
-2.607296407222747803e-01,-1.239100217819213867e+00,-8.788518309593200684e-01,-5.700335502624511719e-01,2.421011030673980713e-01,-7.263732552528381348e-01,0.000000000000000000e+00,-7.617025077342987061e-02,-5.285334587097167969e-01,0.000000000000000000e+00,3.406384214758872986e-02,-4.227177798748016357e-01,4.912734404206275940e-02,-8.734056949615478516e-01,-4.794574081897735596e-01,-5.889468193054199219e-01,1.264400601387023926e+00,1.092185497283935547e+00,0.000000000000000000e+00,4.468328058719635010e-01,-4.942039847373962402e-01,5.187785029411315918e-01,-2.951908707618713379e-01,0.000000000000000000e+00,0.000000000000000000e+00,-1.707615256309509277e-01,-2.116938829421997070e-01,3.484494686126708984e-01,-2.286758124828338623e-01,0.000000000000000000e+00,1.000000000000000000e+00
8.798833489418029785e-01,0.000000000000000000e+00,-8.775973916053771973e-01,0.000000000000000000e+00,-7.375699877738952637e-01,1.452415108680725098e+00,0.000000000000000000e+00,3.079558014869689941e-01,3.207423388957977295e-01,8.077896833419799805e-01,1.919087488204240799e-03,-1.041852474212646484e+00,5.028330683708190918e-01,7.655996084213256836e-01,8.074371814727783203e-01,5.884925723075866699e-01,-1.084150075912475586e+00,4.715700149536132812e-01,-4.224714934825897217e-01,-7.510887384414672852e-01,2.017704099416732788e-01,-5.612353682518005371e-01,5.646859407424926758e-01,-1.007728576660156250e+00,9.430207610130310059e-01,5.977846980094909668e-01,8.654292225837707520e-01,4.081523716449737549e-01,-3.508258163928985596e-01,-4.603819549083709717e-01,1.000000000000000000e+00
2.639090120792388916e-01,-9.273924231529235840e-01,-5.830080509185791016e-01,2.598757743835449219e-01,4.561079442501068115e-01,-2.593806385993957520e-01,2.145849764347076416e-01,-5.629158020019531250e-01,4.651332795619964600e-01,-4.615566432476043701e-01,-3.228945434093475342e-01,6.356862783432006836e-01,5.217425823211669922e-01,7.343772649765014648e-01,6.332713961601257324e-01,-1.054467201232910156e+00,-9.998184442520141602e-01,0.000000000000000000e+00,-1.356085985898971558e-01,5.692949146032333374e-02,-4.750907793641090393e-02,0.000000000000000000e+00,1.144791603088378906e+00,1.546901166439056396e-01,-5.615384578704833984e-01,-4.314793944358825684e-01,1.103957220911979675e-01,-5.636134147644042969e-01,7.817920446395874023e-01,8.048390150070190430e-01,1.000000000000000000e+00
3.660456836223602295e-01,-3.988490104675292969e-01,0.000000000000000000e+00,-6.424440443515777588e-02,5.953233242034912109e-01,-3.085583634674549103e-02,-7.993505001068115234e-01,-7.986084222793579102e-01,0.000000000000000000e+00,2.128945477306842804e-02,0.000000000000000000e+00,7.572945952415466309e-01,-3.445096909999847412e-01,-2.973947823047637939e-01,0.000000000000000000e+00,3.615876138210296631e-01,1.450867295265197754e+00,-6.145766973495483398e-01,-7.911335229873657227e-01,5.754102468490600586e-01,7.114472985267639160e-01,0.000000000000000000e+00,0.000000000000000000e+00,1.229898095130920410e+00,0.000000000000000000e+00,0.000000000000000000e+00,1.308582574129104614e-01,0.000000000000000000e+00,1.267662882804870605e+00,6.936115622520446777e-01,0.000000000000000000e+00
-3.889501988887786865e-01,2.588034607470035553e-02,-2.522154450416564941e-01,-7.118968367576599121e-01,1.215995252132415771e-01,-5.868872404098510742e-01,0.000000000000000000e+00,0.000000000000000000e+00,-1.334152579307556152e+00,-9.503558874130249023e-01,6.379507780075073242e-01,0.000000000000000000e+00,-7.448139786720275879e-01,3.665440976619720459e-01,-7.652917876839637756e-03,-1.346179366111755371e+00,2.663534693419933319e-02,-1.105520129203796387e+00,0.000000000000000000e+00,1.202933311462402344e+00,7.695018053054809570e-01,0.000000000000000000e+00,8.878948092460632324e-01,-2.758180797100067139e-01,-4.418838024139404297e-01,2.691213190555572510e-01,1.157357454299926758e+00,-2.803908586502075195e-01,-1.785600334405899048e-01,8.199603110551834106e-02,1.000000000000000000e+00
-1.563839167356491089e-01,5.423016548156738281e-01,-1.395152062177658081e-01,0.000000000000000000e+00,7.152884006500244141e-01,1.560952425003051758e+00,8.004765510559082031e-01,4.207594394683837891e-01,8.099657297134399414e-01,6.658055782318115234e-01,4.219983816146850586e-01,-4.841009974479675293e-01,7.398484945297241211e-01,-5.631015300750732422e-01,0.000000000000000000e+00,-7.781929522752761841e-02,-7.870858907699584961e-01,-4.860877692699432373e-01,8.011374622583389282e-02,2.510375529527664185e-02,0.000000000000000000e+00,-2.966633141040802002e-01,5.151745080947875977e-01,-5.368884801864624023e-01,1.363512516021728516e+00,1.454879641532897949e-01,-3.942604660987854004e-01,4.140790700912475586e-01,-3.830096721649169922e-01,4.630503356456756592e-01,0.000000000000000000e+00
2.277548164129257202e-01,-2.096005976200103760e-01,3.255131542682647705e-01,6.286303997039794922e-01,-2.951288223266601562e-01,-2.971004247665405273e-01,2.552587687969207764e-01,2.415580153465270996e-01,2.820712029933929443e-01,5.189425498247146606e-02,0.000000000000000000e+00,-5.365568026900291443e-02,8.975867629051208496e-01,0.000000000000000000e+00,0.000000000000000000e+00,0.000000000000000000e+00,-1.404080688953399658e-01,-5.004055500030517578e-01,1.835664212703704834e-01,-1.994233429431915283e-01,-9.526524543762207031e-01,2.365384101867675781e-01,6.266693472862243652e-01,-1.217428594827651978e-01,-5.570361614227294922e-01,-7.067925930023193359e-01,-4.525880515575408936e-01,-9.256187677383422852e-01,-5.180783271789550781e-01,6.149454116821289062e-01,1.000000000000000000e+00
0.000000000000000000e+00,1.020393222570419312e-01,-4.770841300487518311e-01,8.557190895080566406e-01,-2.425169348716735840e-01,-2.113372236490249634e-01,4.127507805824279785e-01,4.644568860530853271e-01,0.000000000000000000e+00,2.036356031894683838e-01,1.135442256927490234e+00,6.107705235481262207e-01,2.937908470630645752e-01,-1.357789635658264160e-01,8.879970312118530273e-01,2.311117947101593018e-01,9.786654263734817505e-02,-2.861007302999496460e-02,-2.356978058815002441e-01,1.914866268634796143e-01,7.403347641229629517e-02,5.421569943428039551e-01,-8.578091859817504883e-01,-7.779357433319091797e-01,3.270974159240722656e-01,9.394856095314025879e-01,-9.418970942497253418e-01,0.000000000000000000e+00,-1.025534421205520630e-01,-3.462817072868347168e-01,0.000000000000000000e+00
5.630282163619995117e-01,-9.063182473182678223e-01,-4.042635485529899597e-02,0.000000000000000000e+00,1.408172696828842163e-01,-7.208846807479858398e-01,3.816941082477569580e-01,-6.415445208549499512e-01,4.335044920444488525e-01,-4.623037874698638916e-01,0.000000000000000000e+00,-5.017447099089622498e-02,0.000000000000000000e+00,-8.601424098014831543e-02,0.000000000000000000e+00,-3.755377233028411865e-01,-3.188959956169128418e-01,-1.256281971931457520e+00,5.783861279487609863e-01,-1.304451584815979004e+00,-2.909006178379058838e-01,1.089190363883972168e+00,3.643993437290191650e-01,-1.164207458496093750e+00,-3.426093459129333496e-01,3.707571625709533691e-01,-2.282311618328094482e-01,1.755828782916069031e-02,-5.272066593170166016e-01,3.469586372375488281e-02,1.000000000000000000e+00
6.928826570510864258e-01,0.000000000000000000e+00,8.033301234245300293e-01,3.571482002735137939e-01,3.544138967990875244e-01,0.000000000000000000e+00,5.376372486352920532e-03,-1.183894202113151550e-01,1.887855827808380127e-01,-8.846514225006103516e-01,-1.576124668121337891e+00,-1.208029165863990784e-01,-2.706660628318786621e-01,-6.091217398643493652e-01,8.093423247337341309e-01,-1.029393196105957031e+00,3.798615336418151855e-01,0.000000000000000000e+00,2.093686163425445557e-02,2.885566949844360352e-01,0.000000000000000000e+00,-2.551987171173095703e-01,-4.550721049308776855e-01,-5.268282890319824219e-01,4.029379412531852722e-02,3.853003680706024170e-01,-2.611546516418457031e-01,-5.960076451301574707e-01,1.067051365971565247e-01,3.477541506290435791e-01,0.000000000000000000e+00
2.545305192470550537e-01,4.110734462738037109e-01,0.000000000000000000e+00,4.426518082618713379e-01,-6.047679185867309570e-01,-1.610464602708816528e-01,1.432147324085235596e-01,9.224108457565307617e-01,2.543018102645874023e+00,-1.081001833081245422e-01,1.685643434524536133e+00,-3.238725960254669189e-01,0.000000000000000000e+00,1.228531360626220703e+00,-1.878292679786682129e+00,0.000000000000000000e+00,-3.862292468547821045e-01,2.886444926261901855e-01,-4.545350670814514160e-01,-1.991186380386352539e+00,-5.183247327804565430e-01,-1.530288457870483398e+00,2.678471803665161133e+00,-1.048198580741882324e+00,1.080969095230102539e+00,1.150733709335327148e+00,2.025979757308959961e+00,-1.637539029121398926e+00,-3.981926143169403076e-01,-6.045056581497192383e-01,1.000000000000000000e+00
-6.876773238182067871e-01,1.627883315086364746e-02,1.752889901399612427e-02,-3.690629601478576660e-01,1.131731346249580383e-01,-4.035437405109405518e-01,-4.080412387847900391e-01,1.488227397203445435e-01,1.009813845157623291e-01,-3.705564439296722412e-01,-5.735504627227783203e-01,1.295263290405273438e+00,-6.302799582481384277e-01,-3.355084955692291260e-01,-3.028160333633422852e-01,-6.655344963073730469e-01,-7.875372171401977539e-01,1.210022941231727600e-01,1.278108805418014526e-01,9.937290102243423462e-02,4.410588145256042480e-01,8.796064853668212891e-01,8.699741959571838379e-01,9.539227001368999481e-03,-5.259264111518859863e-01,0.000000000000000000e+00,6.792590618133544922e-01,-1.043075084686279297e+00,0.000000000000000000e+00,1.124853610992431641e+00,0.000000000000000000e+00
5.214388966560363770e-01,-8.875433206558227539e-01,-1.842516660690307617e+00,-4.905441701412200928e-01,5.295373201370239258e-01,-1.099248290061950684e+00,-4.894103705883026123e-01,-6.374794840812683105e-01,-6.845602393150329590e-01,-2.437818199396133423e-01,5.873540043830871582e-01,1.073583722114562988e+00,4.031022489070892334e-01,1.668764829635620117e+00,-1.428556561470031738e+00,-1.105128884315490723e+00,-2.520291507244110107e-01,2.771393060684204102e-01,-3.236151933670043945e-01,1.621962040662765503e-01,6.137443780899047852e-01,3.366033434867858887e-01,0.000000000000000000e+00,-6.186035275459289551e-01,0.000000000000000000e+00,-1.071976572275161743e-01,-1.034392952919006348e+00,9.744545817375183105e-01,1.182044982910156250e+00,1.458058953285217285e+00,1.000000000000000000e+00
-7.818230986595153809e-01,4.279483854770660400e-01,-3.195479214191436768e-01,0.000000000000000000e+00,-5.776379629969596863e-02,4.432506263256072998e-01,3.488605022430419922e-01,-7.080188989639282227e-01,-2.921668887138366699e-01,-6.548133492469787598e-01,0.000000000000000000e+00,5.789380073547363281e-01,0.000000000000000000e+00,-3.614190518856048584e-01,-9.834934473037719727e-01,9.359406679868698120e-02,4.177948832511901855e-01,-6.387142539024353027e-01,-2.580378949642181396e-01,8.202084302902221680e-01,-1.433127559721469879e-03,9.816294312477111816e-01,5.094974040985107422e-01,1.985843032598495483e-01,-4.978986680507659912e-01,-7.277390360832214355e-02,-5.573253631591796875e-01,5.129275321960449219e-01,0.000000000000000000e+00,7.235164642333984375e-01,1.000000000000000000e+00
-1.020500898361206055e+00,5.716901272535324097e-02,-3.033365011215209961e-01,8.120746016502380371e-01,-8.787104487419128418e-01,3.332615196704864502e-01,-1.109307408332824707e+00,6.489762067794799805e-01,-2.363952994346618652e-01,-3.464443385601043701e-01,-5.094273090362548828e-01,9.776756167411804199e-02,-3.769079968333244324e-02,3.493892848491668701e-01,5.148252472281455994e-02,-7.339462041854858398e-01,2.115214318037033081e-01,0.000000000000000000e+00,-5.763791799545288086e-01,7.440747618675231934e-01,0.000000000000000000e+00,5.792826879769563675e-03,-9.094299674034118652e-01,-2.622387707233428955e-01,1.318856716156005859e+00,-2.174275219440460205e-01,-8.243776112794876099e-02,3.268743455410003662e-01,2.825638353824615479e-01,-6.301960349082946777e-01,1.000000000000000000e+00
1.273040473461151123e-01,1.548603773117065430e+00,6.145985126495361328e-01,1.059231638908386230e+00,7.802067399024963379e-01,1.983244538307189941e+00,-8.531573414802551270e-01,7.878136634826660156e-01,-2.824504673480987549e-01,2.717617988586425781e+00,-1.087533831596374512e+00,-6.715105473995208740e-02,0.000000000000000000e+00,1.411860704421997070e+00,1.865694880485534668e+00,7.306553125381469727e-01,-1.773811101913452148e+00,1.309375047683715820e+00,6.768044233322143555e-01,-1.849551916122436523e+00,1.107508316636085510e-01,9.596902877092361450e-02,-6.473956108093261719e-01,-4.748917222023010254e-01,-5.919514894485473633e-01,1.164769604802131653e-01,0.000000000000000000e+00,1.847755432128906250e+00,-9.910612702369689941e-01,-1.632811546325683594e+00,1.000000000000000000e+00
-7.102428078651428223e-01,-1.036870241165161133e+00,3.667328357696533203e-01,-4.031268358230590820e-01,9.649000763893127441e-01,1.495860934257507324e+00,-4.904204308986663818e-01,-8.393434286117553711e-01,-1.333880543708801270e+00,4.962227940559387207e-01,3.455721139907836914e-01,0.000000000000000000e+00,-6.321457028388977051e-01,2.877616882324218750e-01,3.548194169998168945e-01,-8.925611376762390137e-01,-2.914604246616363525e-01,-1.520925521850585938e+00,-6.235181689262390137e-01,2.338068783283233643e-01,6.037560105323791504e-01,-6.430529356002807617e-01,-1.334329128265380859e+00,1.572648286819458008e+00,4.545791149139404297e-01,2.943874336779117584e-02,5.198574066162109375e-01,7.617483139038085938e-01,8.946598321199417114e-02,-5.497702583670616150e-02,1.000000000000000000e+00
-5.659086704254150391e-01,1.159192562103271484e+00,1.412409901618957520e+00,-7.186434268951416016e-01,2.506130039691925049e-01,-1.479179024696350098e+00,3.467513024806976318e-01,7.680414617061614990e-02,3.980298936367034912e-01,-5.774695873260498047e-01,6.635304093360900879e-01,1.098610520362854004e+00,8.092380166053771973e-01,9.531438946723937988e-01,-5.913362503051757812e-01,-2.208625972270965576e-01,4.327565729618072510e-01,-1.423226237297058105e+00,-1.022220492362976074e+00,-1.040299892425537109e+00,1.432937622070312500e+00,-6.575485318899154663e-02,2.103159129619598389e-01,0.000000000000000000e+00,6.341593265533447266e-01,5.928387641906738281e-01,0.000000000000000000e+00,0.000000000000000000e+00,1.043677210807800293e+00,0.000000000000000000e+00,1.000000000000000000e+00
1.227512434124946594e-01,4.215658605098724365e-01,1.299548268318176270e+00,5.716915726661682129e-01,3.712172806262969971e-01,0.000000000000000000e+00,-3.381143808364868164e-01,9.705831408500671387e-01,0.000000000000000000e+00,0.000000000000000000e+00,-9.220480322837829590e-01,-3.583615422248840332e-01,1.000180542469024658e-01,5.471266508102416992e-01,-1.096804618835449219e+00,0.000000000000000000e+00,-2.790904045104980469e-01,9.806305766105651855e-01,0.000000000000000000e+00,-5.499204397201538086e-01,-7.687767595052719116e-02,-1.720502614974975586e+00,8.751136064529418945e-01,-2.441596835851669312e-01,1.920039057731628418e+00,7.850912213325500488e-01,1.075898170471191406e+00,-1.902240812778472900e-01,4.242554605007171631e-01,-4.219688773155212402e-01,1.000000000000000000e+00
8.893921375274658203e-01,5.133983492851257324e-01,8.869582414627075195e-02,9.249004125595092773e-01,-7.422527074813842773e-01,1.451913565397262573e-01,5.470902919769287109e-01,1.079358458518981934e+00,-5.624883770942687988e-01,7.659091949462890625e-01,-7.151572704315185547e-01,-2.766782939434051514e-01,-1.577693969011306763e-01,-1.109890341758728027e+00,4.824857711791992188e-01,5.300129652023315430e-01,-1.940473914146423340e-02,-8.254567384719848633e-01,-1.866585807874798775e-03,4.570005238056182861e-01,2.312107980251312256e-01,-1.490867257118225098e+00,2.358621209859848022e-01,8.641661405563354492e-01,-1.973313570022583008e+00,-1.164651870727539062e+00,-5.300918221473693848e-01,-9.255868792533874512e-01,3.793705403804779053e-01,-2.846242487430572510e-01,1.000000000000000000e+00
-1.937095373868942261e-01,-3.392966687679290771e-01,-4.345639050006866455e-02,-5.570225715637207031e-01,0.000000000000000000e+00,-3.575853109359741211e-01,1.989279389381408691e-01,8.173795789480209351e-02,-4.191250801086425781e-01,3.441738486289978027e-01,2.027425765991210938e-01,0.000000000000000000e+00,-3.192771375179290771e-01,-6.016806960105895996e-01,0.000000000000000000e+00,0.000000000000000000e+00,5.157074332237243652e-01,1.307773888111114502e-01,6.867642402648925781e-01,1.776490360498428345e-01,-9.352366626262664795e-02,6.701251268386840820e-01,-9.660263061523437500e-01,8.962662220001220703e-01,-3.610240817070007324e-01,-9.314571022987365723e-01,-5.803977847099304199e-01,1.491407752037048340e-01,0.000000000000000000e+00,-7.385929673910140991e-02,1.000000000000000000e+00
-7.641069889068603516e-01,-7.764526009559631348e-01,-3.854167759418487549e-01,2.840509116649627686e-01,7.635127902030944824e-01,4.231804907321929932e-01,3.450864851474761963e-01,-2.407251745462417603e-01,-2.331735007464885712e-02,3.449683189392089844e-01,9.697969555854797363e-01,-1.000096350908279419e-01,-1.017629146575927734e+00,-2.168483333662152290e-03,2.478916049003601074e-01,4.770662486553192139e-01,0.000000000000000000e+00,1.172115802764892578e+00,-1.750600151717662811e-02,2.800003588199615479e-01,-2.847393453121185303e-01,-8.407688736915588379e-01,4.308669865131378174e-01,5.028331279754638672e-01,-2.029713541269302368e-01,1.321894884109497070e+00,6.419618725776672363e-01,-2.261277846992015839e-02,0.000000000000000000e+00,-4.814637005329132080e-01,1.000000000000000000e+00
7.337676882743835449e-01,0.000000000000000000e+00,1.310954213142395020e+00,-7.085369825363159180e-01,-4.240985214710235596e-01,-9.099497199058532715e-01,-1.791985929012298584e-01,-2.635407028719782829e-03,-1.476037800312042236e-01,-2.562094330787658691e-01,-3.725180625915527344e-01,1.379718482494354248e-01,-1.132737159729003906e+00,-3.398858606815338135e-01,1.654783338308334351e-01,-1.888325959444046021e-01,1.752424985170364380e-01,6.220890879631042480e-01,-3.176017999649047852e-01,0.000000000000000000e+00,-6.043485999107360840e-01,4.593580961227416992e-03,-8.564032912254333496e-01,0.000000000000000000e+00,5.625715255737304688e-01,6.038781255483627319e-02,-1.700007021427154541e-01,-9.036434888839721680e-01,-2.529228627681732178e-01,2.022418975830078125e-01,1.000000000000000000e+00
-7.685629129409790039e-01,3.875472247600555420e-01,1.420193612575531006e-01,1.032064706087112427e-01,-1.329241245985031128e-01,2.808856964111328125e-01,-5.474612712860107422e-01,6.576000452041625977e-01,2.076569646596908569e-01,2.604231834411621094e-01,-2.015216508880257607e-03,7.215942144393920898e-01,2.382101118564605713e-01,2.410364300012588501e-01,6.326821446418762207e-01,-9.772185236215591431e-02,7.742064073681831360e-03,3.619796633720397949e-01,-3.758701086044311523e-01,2.974994182586669922e-01,2.821095585823059082e-01,1.088685318827629089e-01,-5.511423945426940918e-01,-3.689003586769104004e-01,1.356680870056152344e+00,5.121321082115173340e-01,0.000000000000000000e+00,-2.311989217996597290e-01,2.196357101202011108e-01,-2.982594966888427734e-01,0.000000000000000000e+00
2.077126652002334595e-01,-2.169634401798248291e-01,9.903457760810852051e-01,-4.380488991737365723e-01,3.427124321460723877e-01,-1.340229034423828125e+00,-8.277933001518249512e-01,-2.056612865999341011e-03,-4.535287916660308838e-01,-4.643877446651458740e-01,1.712385714054107666e-01,-1.093952506780624390e-01,-6.131073236465454102e-01,-4.675878882408142090e-01,6.751992106437683105e-01,-3.989766165614128113e-02,4.782229959964752197e-01,-3.066100776195526123e-01,-7.045845389366149902e-01,5.262331962585449219e-01,-4.142428934574127197e-01,2.016935944557189941e-01,-4.077626466751098633e-01,-7.177570462226867676e-01,6.779971718788146973e-01,2.673996388912200928e-01,-2.264132201671600342e-01,-5.773565173149108887e-01,-8.704104423522949219e-01,1.122547149658203125e+00,1.000000000000000000e+00
-2.072944864630699158e-02,-7.804141044616699219e-01,1.010250687599182129e+00,1.875704675912857056e-01,9.137308597564697266e-01,-3.914635777473449707e-01,0.000000000000000000e+00,-9.176488220691680908e-02,1.061660408973693848e+00,4.235661327838897705e-01,0.000000000000000000e+00,0.000000000000000000e+00,0.000000000000000000e+00,-7.320360541343688965e-01,3.202507495880126953e-01,4.117267727851867676e-01,2.963526546955108643e-01,5.821219682693481445e-01,1.498633027076721191e-01,6.460117101669311523e-01,1.928873360157012939e-01,0.000000000000000000e+00,-8.252127170562744141e-01,1.002866387367248535e+00,-1.457393646240234375e+00,-1.347839236259460449e+00,6.971023082733154297e-01,0.000000000000000000e+00,4.492381215095520020e-01,7.212678790092468262e-01,1.000000000000000000e+00
-6.582319140434265137e-01,2.051244229078292847e-01,1.317772716283798218e-01,-3.597724735736846924e-01,-1.616372019052505493e-01,-3.981632888317108154e-01,-1.974200010299682617e-01,-9.060674905776977539e-02,-8.569496870040893555e-01,-7.652485966682434082e-01,1.731198579072952271e-01,1.431017637252807617e+00,-1.689800858497619629e+00,1.552345752716064453e-01,-9.457370042800903320e-01,-1.558098912239074707e+00,-2.028986364603042603e-01,0.000000000000000000e+00,9.543541073799133301e-01,8.806711435317993164e-01,8.401587605476379395e-01,9.016096591949462891e-01,3.585675656795501709e-01,4.230058193206787109e-01,-6.124043464660644531e-01,3.695358932018280029e-01,1.015617132186889648e+00,-8.036737442016601562e-01,0.000000000000000000e+00,3.938311338424682617e-01,1.000000000000000000e+00
-8.919086456298828125e-01,-2.329258918762207031e-01,-6.942953467369079590e-01,-1.950351893901824951e-01,6.013624668121337891e-01,-8.916041851043701172e-01,2.294666469097137451e-01,-2.795285880565643311e-01,-6.769506335258483887e-01,-5.595315694808959961e-01,0.000000000000000000e+00,-2.255122959613800049e-01,-5.745631456375122070e-01,-8.842317461967468262e-01,-8.518176525831222534e-02,-8.130697607994079590e-01,9.507174491882324219e-01,-1.055367477238178253e-02,1.010044142603874207e-01,2.313185483217239380e-01,5.468512773513793945e-01,7.355420291423797607e-02,5.089208483695983887e-01,-6.776551902294158936e-02,5.988453049212694168e-03,0.000000000000000000e+00,-9.803467988967895508e-02,9.784869849681854248e-02,4.643116891384124756e-01,-5.439763069152832031e-01,0.000000000000000000e+00
-1.056426167488098145e+00,2.296245813369750977e+00,0.000000000000000000e+00,1.582517981529235840e+00,-1.304780840873718262e+00,1.469648838043212891e+00,3.033859431743621826e-01,1.228402614593505859e+00,2.034872055053710938e+00,9.679234027862548828e-01,-4.096342027187347412e-01,-1.428314805030822754e+00,6.623038053512573242e-01,8.192871809005737305e-01,-5.816599726676940918e-01,2.635214328765869141e-01,-1.947015762329101562e+00,1.309129714965820312e+00,1.134494423866271973e+00,-5.398538112640380859e-01,-6.287747025489807129e-01,-6.345762610435485840e-01,-3.361146748065948486e-01,-9.830455183982849121e-01,0.000000000000000000e+00,-6.305878758430480957e-01,-7.413592338562011719e-01,6.915078759193420410e-01,2.332972884178161621e-01,-1.350325226783752441e+00,1.000000000000000000e+00
-7.006770968437194824e-01,-3.595821857452392578e-01,5.336224436759948730e-01,1.127854943275451660e+00,-4.897727668285369873e-01,7.621132135391235352e-01,-1.293153285980224609e+00,3.346040546894073486e-01,-8.642988204956054688e-01,-4.588730633258819580e-01,-1.337626576423645020e+00,8.373949527740478516e-01,-3.075778670608997345e-02,2.064913213253021240e-01,-2.387124449014663696e-01,-9.018759727478027344e-01,0.000000000000000000e+00,0.000000000000000000e+00,5.001171231269836426e-01,3.589000105857849121e-01,7.121464014053344727e-01,-4.470148682594299316e-01,-1.414664626121520996e+00,4.429385960102081299e-01,1.469972252845764160e+00,-6.024728417396545410e-01,3.791403174400329590e-01,0.000000000000000000e+00,1.240442246198654175e-01,-7.082087397575378418e-01,1.000000000000000000e+00
-7.384300827980041504e-01,3.133060038089752197e-01,-6.288605332374572754e-01,-1.526014566421508789e+00,9.275493025779724121e-02,0.000000000000000000e+00,1.967193186283111572e-01,-8.795077204704284668e-01,-6.512956023216247559e-01,-4.797138869762420654e-01,1.461071848869323730e+00,2.893025279045104980e-01,5.621097087860107422e-01,-6.150640845298767090e-01,-5.804717540740966797e-01,3.294368088245391846e-01,5.550690889358520508e-01,-1.337432622909545898e+00,2.166837640106678009e-02,7.173268198966979980e-01,1.591732800006866455e-01,1.093336701393127441e+00,3.427704274654388428e-01,5.370939970016479492e-01,-1.043383777141571045e-01,0.000000000000000000e+00,-4.995957016944885254e-01,5.398297309875488281e-01,-3.613161444664001465e-01,7.922554016113281250e-01,0.000000000000000000e+00
0.000000000000000000e+00,-8.575734496116638184e-01,1.796480715274810791e-01,-2.643397450447082520e-01,-6.090370416641235352e-01,-4.848073720932006836e-01,-7.912268042564392090e-01,-2.302997857332229614e-01,1.363535672426223755e-01,-4.129872024059295654e-01,-7.441731691360473633e-01,-1.274622231721878052e-02,-7.497485876083374023e-01,-2.550332248210906982e-01,4.719327092170715332e-01,-4.206573963165283203e-01,4.774269461631774902e-01,0.000000000000000000e+00,-9.900964796543121338e-02,-2.216413766145706177e-01,3.907581325620412827e-03,0.000000000000000000e+00,-6.699906587600708008e-01,-7.636603116989135742e-01,0.000000000000000000e+00,5.096096396446228027e-01,-2.640752196311950684e-01,-5.484657287597656250e-01,2.814174294471740723e-01,1.105317845940589905e-01,1.000000000000000000e+00
1.976258307695388794e-01,6.468243002891540527e-01,-9.796003997325897217e-02,-4.299499690532684326e-01,0.000000000000000000e+00,6.131647825241088867e-01,-1.369997560977935791e-01,2.756316661834716797e-01,0.000000000000000000e+00,-3.525542616844177246e-01,-6.105359196662902832e-01,-4.491415023803710938e-01,-8.058535307645797729e-02,0.000000000000000000e+00,1.378586590290069580e-01,-4.967038035392761230e-01,-2.242370992898941040e-01,1.039827316999435425e-01,-1.126622438430786133e+00,5.453616976737976074e-01,-5.547575354576110840e-01,-2.912210822105407715e-01,-4.606937468051910400e-01,-2.614632248878479004e-01,0.000000000000000000e+00,0.000000000000000000e+00,-4.487796723842620850e-01,2.673966586589813232e-01,0.000000000000000000e+00,1.116613484919071198e-02,1.000000000000000000e+00
1.117669045925140381e-01,9.918256402015686035e-01,8.530930876731872559e-01,-3.672825694084167480e-01,5.989292860031127930e-01,-4.371086955070495605e-01,-3.432934880256652832e-01,9.131212718784809113e-03,8.528341650962829590e-01,1.001445800065994263e-01,6.169822216033935547e-01,-2.973027527332305908e-01,8.579655885696411133e-01,2.899473607540130615e-01,0.000000000000000000e+00,9.727701544761657715e-01,-9.645897895097732544e-02,-3.829483687877655029e-02,-2.648167312145233154e-01,-9.386782050132751465e-01,1.864858567714691162e-01,0.000000000000000000e+00,1.419911146163940430e+00,-6.474937796592712402e-01,1.714971423149108887e+00,6.283011436462402344e-01,1.187954783439636230e+00,-4.698851332068443298e-02,-1.215375214815139771e-02,-2.235765457153320312e-01,0.000000000000000000e+00
0.000000000000000000e+00,-1.107936739921569824e+00,5.547609925270080566e-01,-2.130907773971557617e-01,1.232935070991516113e+00,6.888492703437805176e-01,3.417694196105003357e-02,-9.204317927360534668e-01,-1.648638844490051270e+00,2.021604217588901520e-02,2.186707854270935059e-01,3.794424831867218018e-01,0.000000000000000000e+00,3.607757091522216797e-01,9.601229429244995117e-02,-6.042768359184265137e-01,7.958818674087524414e-01,-6.064005494117736816e-01,-2.932787537574768066e-01,1.286572664976119995e-01,6.478948593139648438e-01,-6.063740253448486328e-01,-7.535517811775207520e-01,1.442203640937805176e+00,0.000000000000000000e+00,5.823005437850952148e-01,8.448299765586853027e-01,9.047196507453918457e-01,6.791736483573913574e-01,-3.395014107227325439e-01,1.000000000000000000e+00
-1.482055634260177612e-01,-4.134112000465393066e-01,-2.044990062713623047e-01,-8.297593593597412109e-01,7.099527716636657715e-01,-6.433196067810058594e-01,-8.150938153266906738e-01,0.000000000000000000e+00,-5.824502706527709961e-01,-9.364783167839050293e-01,3.127206861972808838e-01,3.437726497650146484e-01,8.530827760696411133e-01,-5.841387901455163956e-03,3.217028379440307617e-01,3.882432281970977783e-01,3.406172096729278564e-01,-6.941817402839660645e-01,-1.240391373634338379e+00,4.709238409996032715e-01,-6.747727990150451660e-01,2.593074440956115723e-01,6.953163146972656250e-01,-9.244471788406372070e-01,-1.066770926117897034e-01,1.219036340713500977e+00,9.462701156735420227e-03,5.503480434417724609e-01,-9.832641482353210449e-01,1.321096777915954590e+00,1.000000000000000000e+00
-6.627067923545837402e-01,3.679528087377548218e-02,-3.305913507938385010e-01,2.314917296171188354e-01,-4.617575407028198242e-01,1.541280746459960938e-01,-1.160896420478820801e+00,6.867982149124145508e-01,-9.734662771224975586e-01,-6.130833625793457031e-01,-8.342864364385604858e-02,2.491873651742935181e-01,-4.399015009403228760e-02,1.330915838479995728e-01,4.037736058235168457e-01,0.000000000000000000e+00,6.944597959518432617e-01,-2.415039092302322388e-01,0.000000000000000000e+00,8.792327642440795898e-01,7.457439303398132324e-01,3.532111942768096924e-01,-1.007593274116516113e+00,0.000000000000000000e+00,0.000000000000000000e+00,-1.017711535096168518e-01,1.288225315511226654e-02,8.714855909347534180e-01,1.826465278863906860e-01,-5.968452692031860352e-01,1.000000000000000000e+00
8.064990043640136719e-01,-8.588453531265258789e-01,-6.653146147727966309e-01,-3.767548799514770508e-01,5.996807217597961426e-01,-2.068540811538696289e+00,-3.215633630752563477e-01,1.880917996168136597e-01,-1.016210764646530151e-01,3.501049280166625977e-01,1.881869286298751831e-01,1.674462109804153442e-01,5.606653094291687012e-01,0.000000000000000000e+00,5.720803737640380859e-01,-6.907056570053100586e-01,-1.219187974929809570e+00,4.354639649391174316e-01,1.124782115221023560e-01,5.180653929710388184e-02,9.930717200040817261e-02,-7.147589921951293945e-01,1.885856270790100098e+00,-4.793510735034942627e-01,-3.873817622661590576e-01,-1.667048931121826172e+00,-6.935599446296691895e-01,-1.327902197837829590e+00,-3.288214206695556641e-01,1.300682544708251953e+00,0.000000000000000000e+00
7.171754837036132812e-01,-4.428180158138275146e-01,4.535420238971710205e-01,-1.606161445379257202e-01,1.463832557201385498e-01,3.469387814402580261e-02,-1.063222169876098633e+00,-5.591053962707519531e-01,-1.416268497705459595e-01,1.193963885307312012e-01,6.373434662818908691e-01,5.521533489227294922e-01,-1.772985309362411499e-01,-3.243363499641418457e-01,-1.733651012182235718e-01,1.108541786670684814e-01,1.063674926757812500e+00,-7.806982994079589844e-01,-3.061087429523468018e-01,-1.436041574925184250e-02,7.017859816551208496e-01,0.000000000000000000e+00,-7.837543487548828125e-01,1.079631924629211426e+00,-9.507022500038146973e-01,-7.222425192594528198e-02,9.280864149332046509e-02,4.241532981395721436e-01,1.234873771667480469e+00,4.738031923770904541e-01,1.000000000000000000e+00
1.576713472604751587e-01,-9.120861440896987915e-02,9.448682665824890137e-01,0.000000000000000000e+00,6.419259905815124512e-01,1.644987314939498901e-01,1.092661261558532715e+00,4.631660282611846924e-01,-8.064071536064147949e-01,-1.729182153940200806e-01,-9.233254939317703247e-02,7.474999427795410156e-01,-5.588623881340026855e-01,7.765289545059204102e-01,-1.763085961341857910e+00,-1.283008456230163574e+00,1.121259689331054688e+00,0.000000000000000000e+00,-3.018164634704589844e-01,-2.822151184082031250e-01,1.201523780822753906e+00,-2.404168434441089630e-02,0.000000000000000000e+00,8.971754461526870728e-02,5.534482598304748535e-01,1.612677574157714844e+00,1.066373586654663086e+00,5.677720904350280762e-01,1.224174499511718750e+00,-2.716549634933471680e-01,1.000000000000000000e+00
1.020778894424438477e+00,-4.388566017150878906e-01,6.875575184822082520e-01,-4.648458659648895264e-01,-3.116017580032348633e-01,-1.053512096405029297e+00,-4.122503101825714111e-01,-2.020662277936935425e-01,-1.671656519174575806e-01,-1.649986654520034790e-01,0.000000000000000000e+00,-3.071428537368774414e-01,-5.231528282165527344e-01,-1.433270871639251709e-01,4.655501842498779297e-01,0.000000000000000000e+00,3.590562641620635986e-01,-2.198634743690490723e-01,0.000000000000000000e+00,-3.044357299804687500e-01,-3.443655073642730713e-01,-3.012858629226684570e-01,-8.910237550735473633e-01,-2.882683873176574707e-01,1.200840175151824951e-01,2.254140824079513550e-01,-3.578172922134399414e-01,-6.693339943885803223e-01,-2.273437194526195526e-02,1.325565278530120850e-01,0.000000000000000000e+00
-7.151005864143371582e-01,2.149814367294311523e+00,3.855841755867004395e-01,1.682440757751464844e+00,-1.574941158294677734e+00,1.257202386856079102e+00,3.459608852863311768e-01,5.000406503677368164e-01,1.594304442405700684e+00,1.295504689216613770e+00,4.317735880613327026e-02,0.000000000000000000e+00,3.412098586559295654e-01,5.783082842826843262e-01,-2.719415351748466492e-02,5.211243033409118652e-01,-1.840878009796142578e+00,1.291549444198608398e+00,1.172707676887512207e+00,-3.356092870235443115e-01,-7.318065166473388672e-01,-1.914241164922714233e-01,-6.952977776527404785e-01,-1.524858593940734863e+00,1.296027563512325287e-03,9.855102747678756714e-02,0.000000000000000000e+00,-5.645018815994262695e-02,2.628978900611400604e-02,-8.006434440612792969e-01,1.000000000000000000e+00
0.000000000000000000e+00,0.000000000000000000e+00,2.701815068721771240e-01,1.533144950866699219e+00,-6.998649332672357559e-03,-1.393602967262268066e+00,-1.381710886955261230e+00,1.889045596122741699e+00,-6.831611990928649902e-01,-5.209941864013671875e-01,2.138415336608886719e+00,-6.165997982025146484e-01,-1.971738576889038086e+00,2.233780175447463989e-02,9.350181818008422852e-01,-1.872689247131347656e+00,-1.163230776786804199e+00,-9.135872721672058105e-01,1.291945695877075195e+00,2.527126073837280273e-01,9.424647092819213867e-01,1.224951028823852539e+00,-1.398764252662658691e+00,-9.158982634544372559e-01,-2.965349674224853516e+00,0.000000000000000000e+00,4.371947348117828369e-01,4.004681408405303955e-01,0.000000000000000000e+00,-3.282532989978790283e-01,1.000000000000000000e+00
9.477838128805160522e-02,6.899417936801910400e-02,-1.112641915678977966e-01,-9.007924795150756836e-01,5.521814823150634766e-01,-8.976434469223022461e-01,-5.054054856300354004e-01,1.817798167467117310e-01,-8.879983425140380859e-01,-3.729293644428253174e-01,8.218312263488769531e-01,9.402803182601928711e-01,-7.007097005844116211e-01,-2.147006094455718994e-01,-3.619537353515625000e-01,-1.389034152030944824e+00,-1.748111397027969360e-01,-3.916877508163452148e-01,7.933643646538257599e-03,6.002169251441955566e-01,8.722840547561645508e-01,1.040074586868286133e+00,2.469264566898345947e-01,5.464663505554199219e-01,-3.699833750724792480e-01,1.936215907335281372e-01,0.000000000000000000e+00,-6.222027540206909180e-01,-5.304662585258483887e-01,8.252770304679870605e-01,0.000000000000000000e+00
-1.760102063417434692e-01,1.101566910743713379e+00,1.150414228439331055e+00,-7.096374630928039551e-01,-1.443537175655364990e-01,-1.281901836395263672e+00,5.891826748847961426e-02,-3.966684639453887939e-02,0.000000000000000000e+00,-4.346349835395812988e-01,0.000000000000000000e+00,9.160123467445373535e-01,1.026222944259643555e+00,8.586262464523315430e-01,-4.472843110561370850e-01,-4.900508746504783630e-02,2.908829450607299805e-01,-1.266760587692260742e+00,-1.008084774017333984e+00,-1.312670350074768066e+00,1.397632479667663574e+00,0.000000000000000000e+00,5.338628888130187988e-01,-5.270408466458320618e-03,2.260095775127410889e-01,1.041823506355285645e+00,1.099622249603271484e+00,4.768770635128021240e-01,7.627402544021606445e-01,-7.730260491371154785e-01,1.000000000000000000e+00
-5.881322622299194336e-01,2.932546734809875488e-01,-9.586047530174255371e-01,-1.753211140632629395e+00,3.985522687435150146e-01,-6.560640782117843628e-02,5.481942296028137207e-01,0.000000000000000000e+00,-9.477377533912658691e-01,-7.119365930557250977e-01,1.044230222702026367e+00,-6.277089118957519531e-01,2.780502438545227051e-01,-9.263525009155273438e-01,-5.096413493156433105e-01,-2.833622694015502930e-01,9.940584897994995117e-01,-1.147458910942077637e+00,-2.989546060562133789e-01,4.149462878704071045e-01,3.975275754928588867e-01,9.695431590080261230e-01,5.388491153717041016e-01,1.139169633388519287e-01,3.166081905364990234e-01,-5.920104980468750000e-01,-5.141990184783935547e-01,6.966522932052612305e-01,-5.742651224136352539e-01,4.344688355922698975e-01,0.000000000000000000e+00
-1.156564354896545410e+00,1.850144118070602417e-01,1.007692813873291016e+00,-3.960052132606506348e-01,7.864917516708374023e-01,0.000000000000000000e+00,7.841175794601440430e-01,-3.223934173583984375e-01,2.224022626876831055e+00,1.450321435928344727e+00,-9.395821094512939453e-01,-5.703791975975036621e-01,1.784868478775024414e+00,2.435199469327926636e-01,-1.040553927421569824e+00,1.728433012962341309e+00,-2.209071397781372070e+00,-1.203974559903144836e-01,1.998177766799926758e+00,-1.650833249092102051e+00,-1.040943384170532227e+00,-7.053696513175964355e-01,1.708029747009277344e+00,-3.871963918209075928e-01,1.391612768173217773e+00,-1.263283848762512207e+00,6.485672593116760254e-01,2.471203207969665527e-01,-1.674060344696044922e+00,-5.335723161697387695e-01,1.000000000000000000e+00
2.902324199676513672e-01,-1.604210734367370605e-01,-4.297147393226623535e-01,-6.793103218078613281e-01,8.639761805534362793e-01,6.711915135383605957e-01,4.038527607917785645e-01,0.000000000000000000e+00,-1.306473165750503540e-01,1.211447238922119141e+00,2.183712422847747803e-01,-6.386106610298156738e-01,0.000000000000000000e+00,7.066971808671951294e-02,6.997122168540954590e-01,2.336474359035491943e-01,-6.651214957237243652e-01,4.314428567886352539e-02,4.611493349075317383e-01,-9.937187433242797852e-01,-9.316087514162063599e-02,0.000000000000000000e+00,7.136414051055908203e-01,-3.386215865612030029e-01,2.844328582286834717e-01,9.007123708724975586e-01,1.793218404054641724e-01,5.622683167457580566e-01,-4.663914740085601807e-01,-8.742105960845947266e-01,1.000000000000000000e+00
7.351996898651123047e-01,-6.401661038398742676e-01,2.312277555465698242e-01,-4.742982685565948486e-01,2.285937964916229248e-01,-7.405202984809875488e-01,-3.691868185997009277e-01,1.598658114671707153e-01,1.917048245668411255e-01,-6.004885435104370117e-01,-6.694372296333312988e-01,-3.561869859695434570e-01,0.000000000000000000e+00,-5.933388471603393555e-01,6.866704821586608887e-01,-6.965693235397338867e-01,5.112627744674682617e-01,-6.373328566551208496e-01,0.000000000000000000e+00,-2.595501840114593506e-01,-8.072734624147415161e-02,0.000000000000000000e+00,-5.096825957298278809e-01,-7.391230463981628418e-01,0.000000000000000000e+00,1.992206871509552002e-01,-6.128516793251037598e-01,-4.867441952228546143e-01,2.574589252471923828e-01,3.292528688907623291e-01,0.000000000000000000e+00
7.488068342208862305e-01,0.000000000000000000e+00,0.000000000000000000e+00,5.909676551818847656e-01,-1.460783481597900391e-01,1.671332120895385742e+00,7.339928150177001953e-01,2.089258193969726562e+00,5.048960447311401367e-01,1.000452160835266113e+00,3.296054899692535400e-01,-5.314325690269470215e-01,1.897281557321548462e-01,-7.473177462816238403e-02,1.095850989222526550e-01,3.860605657100677490e-01,-7.082179784774780273e-01,1.166382193565368652e+00,-4.819065928459167480e-01,-9.590874612331390381e-02,-1.307384222745895386e-01,-2.310914248228073120e-01,0.000000000000000000e+00,-7.553604245185852051e-01,9.643414020538330078e-01,1.786052584648132324e-01,1.539995968341827393e-01,6.198671460151672363e-01,2.269595265388488770e-01,-1.340208172798156738e+00,1.000000000000000000e+00
0.000000000000000000e+00,-6.038335561752319336e-01,-4.534134566783905029e-01,-2.655767202377319336e-01,9.573282599449157715e-01,5.281121730804443359e-01,3.612898588180541992e-01,5.573661625385284424e-02,-4.586808979511260986e-01,4.680838286876678467e-01,1.126728057861328125e+00,-4.315133690834045410e-01,-5.759839415550231934e-01,-4.143514037132263184e-01,4.358363449573516846e-01,4.884998798370361328e-01,-2.372281402349472046e-01,0.000000000000000000e+00,-3.589678704738616943e-01,6.668308377265930176e-01,0.000000000000000000e+00,-4.927720725536346436e-01,5.853198766708374023e-01,2.238668501377105713e-01,4.110327363014221191e-01,8.965544700622558594e-01,5.590030550956726074e-01,0.000000000000000000e+00,5.797201022505760193e-02,-4.608187973499298096e-01,0.000000000000000000e+00
5.651604384183883667e-02,-3.398126661777496338e-01,-1.028243303298950195e+00,-4.353226125240325928e-01,-7.015185952186584473e-01,5.478546619415283203e-01,1.389504224061965942e-01,-8.132297545671463013e-02,-5.617082118988037109e-01,2.925733849406242371e-02,1.083808302879333496e+00,-2.760241031646728516e-01,-3.634181022644042969e-01,0.000000000000000000e+00,-3.694265186786651611e-01,-1.687655895948410034e-01,0.000000000000000000e+00,2.224224805831909180e-01,-6.629790663719177246e-01,-2.792810499668121338e-01,4.836291447281837463e-02,0.000000000000000000e+00,4.227871000766754150e-01,2.573069334030151367e-01,-2.398097962141036987e-01,8.772862553596496582e-01,1.163728833198547363e+00,-5.193777680397033691e-01,1.057943776249885559e-01,-4.456083178520202637e-01,1.000000000000000000e+00
-9.590687751770019531e-01,5.131967663764953613e-01,-1.529479771852493286e-01,-1.064511775970458984e+00,-6.906033307313919067e-02,0.000000000000000000e+00,4.904244244098663330e-01,-5.637909173965454102e-01,-6.063309311866760254e-01,-8.498613834381103516e-01,5.015241503715515137e-01,1.039663910865783691e+00,0.000000000000000000e+00,-1.270923465490341187e-01,-1.383914232254028320e+00,-3.536728024482727051e-02,7.989767193794250488e-01,-5.642601847648620605e-01,1.168614029884338379e-01,1.044608354568481445e+00,-1.023895293474197388e-01,1.076350450515747070e+00,2.999413907527923584e-01,5.918629169464111328e-01,-2.466144561767578125e-01,-8.754375576972961426e-02,-4.415098726749420166e-01,5.604869127273559570e-01,2.674203813076019287e-01,7.767329812049865723e-01,0.000000000000000000e+00
0.000000000000000000e+00,-9.197986721992492676e-01,1.085537374019622803e-01,3.935078978538513184e-01,1.649395674467086792e-01,-4.705671668052673340e-01,-6.820308417081832886e-02,-7.504305988550186157e-02,1.747420728206634521e-01,-3.708029985427856445e-01,-4.094894826412200928e-01,-7.931926101446151733e-02,0.000000000000000000e+00,0.000000000000000000e+00,1.033246874809265137e+00,-5.075126886367797852e-01,4.459007382392883301e-01,-2.993669807910919189e-01,0.000000000000000000e+00,-4.015722274780273438e-01,-1.234988421201705933e-01,2.365142405033111572e-01,1.450050920248031616e-01,-4.749239087104797363e-01,-4.002022370696067810e-02,4.108156561851501465e-01,-5.092286467552185059e-01,-8.847033232450485229e-02,1.954083442687988281e-01,2.762955129146575928e-01,0.000000000000000000e+00
-4.090728983283042908e-02,-9.212477207183837891e-01,-8.464165925979614258e-01,1.208585202693939209e-01,0.000000000000000000e+00,-6.337085366249084473e-01,-5.638500303030014038e-02,-4.561489820480346680e-01,4.097119867801666260e-01,2.211205959320068359e-01,-5.060079097747802734e-01,1.252219796180725098e+00,-7.340252399444580078e-02,6.971065402030944824e-01,-1.601355373859405518e-01,-4.196196198463439941e-01,-1.464542299509048462e-01,-1.478808838874101639e-02,-4.049237668514251709e-01,0.000000000000000000e+00,6.219797730445861816e-01,-3.249602913856506348e-01,1.085067152976989746e+00,2.331757992506027222e-01,-4.604367017745971680e-01,3.067217469215393066e-01,-1.031526088714599609e+00,-7.053610682487487793e-01,-1.754966825246810913e-01,-1.248250603675842285e-01,1.000000000000000000e+00
-8.284242749214172363e-01,-2.071096003055572510e-01,-4.850955605506896973e-01,-1.691737174987792969e-01,0.000000000000000000e+00,-6.680071949958801270e-01,2.013175487518310547e-01,-4.620708525180816650e-01,0.000000000000000000e+00,-4.319657087326049805e-01,-5.723755955696105957e-01,-2.574071884155273438e-01,-5.319442749023437500e-01,-9.525168538093566895e-01,2.723210863769054413e-02,0.000000000000000000e+00,8.508331179618835449e-01,9.652993083000183105e-02,2.428068220615386963e-02,-7.431043777614831924e-04,4.745956957340240479e-01,9.584271907806396484e-02,7.294633984565734863e-01,-1.207810342311859131e-01,-1.482110917568206787e-01,1.361974179744720459e-01,-2.857554554939270020e-01,1.558904908597469330e-02,4.392825067043304443e-01,-5.193333029747009277e-01,0.000000000000000000e+00
-8.015518188476562500e-01,1.203072890639305115e-01,-3.530028834939002991e-02,1.273755580186843872e-01,4.674229025840759277e-02,-1.027291715145111084e-01,0.000000000000000000e+00,5.621053576469421387e-01,-6.369773745536804199e-01,-1.170254200696945190e-01,3.252593874931335449e-01,4.918497800827026367e-01,1.641229838132858276e-01,2.502657175064086914e-01,8.042376041412353516e-01,-3.067922592163085938e-01,6.445130705833435059e-01,2.103236764669418335e-01,-1.062552928924560547e+00,1.013822793960571289e+00,2.753936350345611572e-01,3.768906593322753906e-01,-6.742538809776306152e-01,0.000000000000000000e+00,1.237010002136230469e+00,5.117167830467224121e-01,-2.071731723845005035e-02,-7.478444278240203857e-02,-7.360968738794326782e-02,-4.222078621387481689e-02,0.000000000000000000e+00
-4.233924746513366699e-01,-9.143219590187072754e-01,4.513264074921607971e-02,3.591126948595046997e-02,7.124766707420349121e-01,0.000000000000000000e+00,0.000000000000000000e+00,-9.731983393430709839e-02,-7.278887033462524414e-01,-2.980726957321166992e-01,-2.729014754295349121e-01,-7.383919954299926758e-01,8.831595182418823242e-01,-1.265003204345703125e+00,1.063712716102600098e+00,-2.561660408973693848e-01,6.676289439201354980e-01,-7.466920018196105957e-01,-4.233586192131042480e-01,-2.348654903471469879e-03,8.489208668470382690e-02,4.946398437023162842e-01,1.459495782852172852e+00,-2.239572107791900635e-01,-7.967044711112976074e-01,-6.788715124130249023e-01,-1.150267049670219421e-01,3.572631776332855225e-01,-6.343848109245300293e-01,4.627077281475067139e-01,1.000000000000000000e+00
-4.562788307666778564e-01,1.026438713073730469e+00,1.191565275192260742e+00,-5.278378129005432129e-01,6.601078808307647705e-02,-1.416241168975830078e+00,1.912447512149810791e-01,3.621546551585197449e-02,3.997589647769927979e-01,-8.148810267448425293e-01,1.083605051040649414e+00,1.010438561439514160e+00,7.464646100997924805e-01,1.105807542800903320e+00,-5.945336222648620605e-01,-2.467343956232070923e-01,4.691718220710754395e-01,0.000000000000000000e+00,-1.271837353706359863e+00,-5.603096485137939453e-01,1.095072388648986816e+00,1.556365638971328735e-01,-3.831623494625091553e-02,7.061741352081298828e-01,1.628291457891464233e-01,6.515531539916992188e-01,1.059738993644714355e+00,5.662831664085388184e-01,9.370934963226318359e-01,-9.608791470527648926e-01,1.000000000000000000e+00
-1.005762815475463867e+00,-1.006285905838012695e+00,3.972919285297393799e-01,-1.017243415117263794e-01,0.000000000000000000e+00,1.716572791337966919e-01,3.392073214054107666e-01,0.000000000000000000e+00,-6.073203086853027344e-01,-1.021342724561691284e-01,5.808628797531127930e-01,0.000000000000000000e+00,-7.241545319557189941e-01,1.552836447954177856e-01,-1.339111626148223877e-01,0.000000000000000000e+00,0.000000000000000000e+00,1.465435326099395752e-01,2.747772634029388428e-01,1.390524506568908691e-01,-1.906355321407318115e-01,-5.552848577499389648e-01,6.386753916740417480e-02,1.244171023368835449e+00,0.000000000000000000e+00,1.291828393936157227e+00,5.476792454719543457e-01,3.149922192096710205e-01,5.733269453048706055e-01,-3.279158771038055420e-01,1.000000000000000000e+00
0.000000000000000000e+00,-4.719571471214294434e-01,0.000000000000000000e+00,-1.893932372331619263e-01,-1.418267250061035156e+00,-1.437348008155822754e+00,-4.165702557656913996e-05,1.366817206144332886e-01,-5.307933688163757324e-01,2.004786431789398193e-01,-8.152730017900466919e-02,4.606898725032806396e-01,0.000000000000000000e+00,6.389423608779907227e-01,1.011427938938140869e-01,6.217711791396141052e-02,-3.147985041141510010e-01,0.000000000000000000e+00,1.650279462337493896e-01,2.413031905889511108e-01,-8.491672873497009277e-01,3.382606804370880127e-01,0.000000000000000000e+00,-4.491264224052429199e-01,4.266152158379554749e-02,1.018562391400337219e-01,-2.975212410092353821e-02,-6.760731935501098633e-01,-5.747219920158386230e-01,0.000000000000000000e+00,1.000000000000000000e+00
-8.746842741966247559e-01,-5.746806971728801727e-03,-3.071193695068359375e-01,1.131363987922668457e+00,-4.401627182960510254e-01,1.511335466057062149e-02,-5.041640996932983398e-01,6.135458946228027344e-01,-6.466786861419677734e-01,-1.480491012334823608e-01,5.240966677665710449e-01,1.007887721061706543e+00,-5.537302494049072266e-01,5.299957394599914551e-01,5.330998897552490234e-01,-5.194962620735168457e-01,8.806286454200744629e-01,4.675062298774719238e-01,-4.369152188301086426e-01,8.016012907028198242e-01,1.071938991546630859e+00,6.687645316123962402e-01,-1.504518628120422363e+00,-2.661614120006561279e-01,6.468197107315063477e-01,8.580466508865356445e-01,-1.327355764806270599e-02,4.763312935829162598e-01,7.161723375320434570e-01,-5.370390415191650391e-01,1.000000000000000000e+00
6.934247612953186035e-01,5.501976609230041504e-01,9.325046539306640625e-01,-2.224775850772857666e-01,1.009365200996398926e+00,-5.383130311965942383e-01,-4.015039205551147461e-01,7.854856252670288086e-01,1.968706369400024414e+00,4.495081305503845215e-01,-4.519390761852264404e-01,-1.797326922416687012e+00,2.427001893520355225e-01,-9.279075264930725098e-01,1.049778461456298828e+00,1.375849366188049316e+00,0.000000000000000000e+00,1.625991702079772949e+00,1.358867287635803223e+00,-5.662955641746520996e-01,-1.596509695053100586e+00,-9.721269011497497559e-01,4.194544628262519836e-03,-1.018863677978515625e+00,-9.098699092864990234e-01,0.000000000000000000e+00,-3.459064662456512451e-01,0.000000000000000000e+00,-7.678974866867065430e-01,1.546506434679031372e-01,1.000000000000000000e+00
-8.792508840560913086e-01,0.000000000000000000e+00,-3.338346183300018311e-01,0.000000000000000000e+00,9.834000468254089355e-02,-1.838876903057098389e-01,8.190913796424865723e-01,-6.219337582588195801e-01,0.000000000000000000e+00,-9.577158689498901367e-01,5.608272552490234375e-02,2.268652468919754028e-01,3.402498085051774979e-03,-3.769071102142333984e-01,-1.325807452201843262e+00,-6.307972073554992676e-01,1.040209293365478516e+00,-4.129836261272430420e-01,3.188858553767204285e-02,2.989961206912994385e-01,1.853261440992355347e-01,9.593814015388488770e-01,7.480897307395935059e-01,5.338848009705543518e-02,-1.148635968565940857e-01,-1.264228969812393188e-01,0.000000000000000000e+00,8.035884499549865723e-01,0.000000000000000000e+00,1.584573239088058472e-01,0.000000000000000000e+00
-6.024489998817443848e-01,-4.033621251583099365e-01,0.000000000000000000e+00,-2.732787430286407471e-01,-8.097526431083679199e-02,-4.895280599594116211e-01,1.098550081253051758e+00,-4.382885098457336426e-01,-1.026511430740356445e+00,-1.083887577056884766e+00,8.025277405977249146e-02,7.319474965333938599e-02,-6.284499764442443848e-01,-3.414853215217590332e-01,-5.568215250968933105e-01,-8.734699487686157227e-01,1.318285346031188965e+00,-7.083637714385986328e-01,-2.781279385089874268e-01,-3.512128591537475586e-01,7.109901905059814453e-01,1.142054080963134766e+00,-9.826256334781646729e-02,2.898540813475847244e-03,-1.697330623865127563e-01,6.263640522956848145e-02,-4.412196874618530273e-01,1.306463956832885742e+00,1.909611076116561890e-01,-7.317153811454772949e-01,1.000000000000000000e+00
-9.433025717735290527e-01,1.436802148818969727e-01,0.000000000000000000e+00,-9.872170090675354004e-01,-3.131222128868103027e-01,9.473885893821716309e-01,2.858663797378540039e-01,0.000000000000000000e+00,6.976779699325561523e-01,2.334533184766769409e-01,-1.366484463214874268e-01,7.140765786170959473e-01,0.000000000000000000e+00,-2.695354819297790527e-01,-8.945284485816955566e-01,1.121720314025878906e+00,0.000000000000000000e+00,0.000000000000000000e+00,4.542817473411560059e-01,2.690055072307586670e-01,-3.202542364597320557e-01,1.276907175779342651e-01,7.465263456106185913e-02,1.328528970479965210e-01,-9.101784825325012207e-01,-9.019488096237182617e-01,-2.787821888923645020e-01,1.286880075931549072e-01,1.196642778813838959e-02,0.000000000000000000e+00,1.000000000000000000e+00
-3.201452195644378662e-01,0.000000000000000000e+00,-9.743303656578063965e-01,3.281438052654266357e-01,9.936320036649703979e-02,-5.284518003463745117e-01,5.989634394645690918e-01,1.238663867115974426e-01,-4.320323001593351364e-03,-6.065302491188049316e-01,1.196061849594116211e+00,4.565863609313964844e-01,5.203167721629142761e-02,-7.269130945205688477e-01,5.412594079971313477e-01,-2.438013255596160889e-01,6.308254599571228027e-01,-4.461725950241088867e-01,-5.000966787338256836e-01,-1.819942146539688110e-01,3.846160769462585449e-01,9.168672561645507812e-01,-1.983399242162704468e-01,-4.896347820758819580e-01,5.766516923904418945e-02,1.248961091041564941e+00,-1.250445008277893066e+00,5.117799639701843262e-01,1.091912761330604553e-01,-1.718871742486953735e-01,0.000000000000000000e+00
8.184311389923095703e-01,0.000000000000000000e+00,1.031819939613342285e+00,-6.466859579086303711e-02,5.315807461738586426e-01,4.176564048975706100e-03,-5.901280641555786133e-01,-2.173989713191986084e-01,-2.870773971080780029e-01,-3.966190516948699951e-01,5.203880667686462402e-01,6.030863523483276367e-01,-4.721088409423828125e-01,-4.559313356876373291e-01,-7.970176339149475098e-01,-1.333134174346923828e-01,1.348336100578308105e+00,-5.798738598823547363e-01,-3.774088919162750244e-01,-2.749348282814025879e-01,3.726440072059631348e-01,0.000000000000000000e+00,-9.867376089096069336e-01,1.619507908821105957e+00,-7.890385389328002930e-01,-6.510890126228332520e-01,-1.660193651914596558e-01,7.572221159934997559e-01,1.286028861999511719e+00,5.865549445152282715e-01,1.000000000000000000e+00
2.539160847663879395e-01,7.856215238571166992e-01,6.082118749618530273e-01,-8.515454530715942383e-01,-5.225694179534912109e-01,6.554763019084930420e-02,-5.261608362197875977e-01,-6.866497546434402466e-02,2.957614511251449585e-02,0.000000000000000000e+00,3.671362698078155518e-01,1.177139207720756531e-01,-4.090181887149810791e-01,-3.067089915275573730e-01,-4.397506266832351685e-02,4.025196433067321777e-01,-3.212401866912841797e-01,-3.507003486156463623e-01,-4.683780968189239502e-01,4.858607351779937744e-01,-4.933101832866668701e-01,4.845683574676513672e-01,-4.644723236560821533e-01,4.807426333427429199e-01,-1.993388235569000244e-01,-3.377112448215484619e-01,-3.512661159038543701e-01,-3.841494917869567871e-01,1.606793552637100220e-01,5.977979898452758789e-01,0.000000000000000000e+00
-8.624849319458007812e-01,-7.653905153274536133e-01,2.202560603618621826e-01,-1.905066817998886108e-01,9.913882017135620117e-01,2.741886675357818604e-01,7.307526469230651855e-02,-5.529984235763549805e-01,-4.779370725154876709e-01,2.358208224177360535e-02,6.097950935363769531e-01,6.356435418128967285e-01,-7.094408869743347168e-01,1.696530357003211975e-02,9.235201776027679443e-02,8.158075064420700073e-02,2.652586698532104492e-01,0.000000000000000000e+00,8.416182547807693481e-02,1.028484478592872620e-01,-4.825969785451889038e-02,-7.271096706390380859e-01,1.330807209014892578e-01,1.020472049713134766e+00,-2.664691209793090820e-01,1.385676264762878418e+00,4.525585472583770752e-01,3.268579840660095215e-01,5.827838182449340820e-01,-2.810963094234466553e-01,1.000000000000000000e+00
6.247498989105224609e-01,-3.051927387714385986e-01,-5.051096528768539429e-02,-7.461453676223754883e-01,4.026391208171844482e-01,4.356427490711212158e-01,7.266351580619812012e-01,3.557475209236145020e-01,-1.288506627082824707e+00,-5.744337439537048340e-01,0.000000000000000000e+00,1.249691992998123169e-01,-1.115818023681640625e+00,2.707683742046356201e-01,0.000000000000000000e+00,-7.455741167068481445e-01,8.274498581886291504e-01,-2.549772858619689941e-01,-7.931774854660034180e-01,1.079527974128723145e+00,5.447053909301757812e-01,1.296643912792205811e-01,1.613646447658538818e-01,4.508560895919799805e-01,7.552435994148254395e-01,7.252787351608276367e-01,9.858780503273010254e-01,1.262919664382934570e+00,1.042880296707153320e+00,-4.197187721729278564e-01,1.000000000000000000e+00
0.000000000000000000e+00,2.744645811617374420e-02,0.000000000000000000e+00,1.039120927453041077e-01,1.655399426817893982e-02,-6.001836061477661133e-01,0.000000000000000000e+00,1.242132425308227539e+00,-5.626640096306800842e-02,-1.270465105772018433e-01,-4.563874900341033936e-01,6.157627701759338379e-01,0.000000000000000000e+00,-6.133609414100646973e-01,-3.555832803249359131e-01,-7.299150824546813965e-01,-6.567820310592651367e-01,-1.750335991382598877e-01,3.365865647792816162e-01,-3.011344969272613525e-01,4.229814708232879639e-01,9.606252312660217285e-01,2.652854919433593750e-01,3.069988787174224854e-01,-7.657018303871154785e-01,-2.084141038358211517e-02,0.000000000000000000e+00,0.000000000000000000e+00,-5.355659723281860352e-01,0.000000000000000000e+00,1.000000000000000000e+00
-5.411092638969421387e-01,2.412827312946319580e-01,-5.836635828018188477e-01,5.588382482528686523e-01,1.135163474828004837e-02,-2.856995165348052979e-01,1.459920406341552734e-01,4.446036815643310547e-01,-3.402593731880187988e-02,4.191079363226890564e-02,9.955605864524841309e-01,3.633649945259094238e-01,-1.141442265361547470e-02,-3.116340637207031250e-01,9.380797147750854492e-01,-5.082693696022033691e-02,3.737996220588684082e-01,3.416206538677215576e-01,-6.171194911003112793e-01,5.121636986732482910e-01,2.478367537260055542e-01,2.803248167037963867e-01,-7.870805859565734863e-01,-4.766482710838317871e-01,5.263729095458984375e-01,8.586964011192321777e-01,-7.489116787910461426e-01,-1.874868720769882202e-01,1.381397992372512817e-01,-4.358694255352020264e-01,0.000000000000000000e+00
4.250519350171089172e-02,-1.340227842330932617e+00,-4.322577416896820068e-01,0.000000000000000000e+00,3.776721954345703125e-01,-7.609354257583618164e-01,-3.491326272487640381e-01,-6.336395740509033203e-01,-5.882524251937866211e-01,-9.332970976829528809e-01,-3.480396270751953125e-01,-3.333703875541687012e-01,-8.627196401357650757e-02,-5.348815321922302246e-01,2.338234037160873413e-01,-6.909655332565307617e-01,1.435764431953430176e+00,-8.963686823844909668e-01,-3.955814540386199951e-01,-4.188657402992248535e-01,5.542767047882080078e-01,8.619796037673950195e-01,2.427252084016799927e-01,0.000000000000000000e+00,-6.741268038749694824e-01,-4.522593691945075989e-03,-1.254875361919403076e-01,8.793863654136657715e-01,0.000000000000000000e+00,0.000000000000000000e+00,1.000000000000000000e+00
-6.624340415000915527e-01,5.365859866142272949e-01,-2.121164351701736450e-01,1.241327047348022461e+00,-3.495609164237976074e-01,0.000000000000000000e+00,1.235667914152145386e-01,6.477194428443908691e-01,2.734353840351104736e-01,5.079111456871032715e-01,1.074299693107604980e+00,2.641246914863586426e-01,2.162542641162872314e-01,2.157778292894363403e-01,6.050139069557189941e-01,2.310541085898876190e-02,-3.105257749557495117e-01,4.025451838970184326e-01,3.125150203704833984e-01,0.000000000000000000e+00,1.599138379096984863e-01,6.750944852828979492e-01,-1.231202840805053711e+00,-7.869964838027954102e-01,-1.590799354016780853e-02,1.301232933998107910e+00,-9.712564945220947266e-01,4.758750498294830322e-01,2.032409161329269409e-01,-4.395954310894012451e-01,1.000000000000000000e+00
-6.500244736671447754e-01,-9.412460774183273315e-02,-3.085529804229736328e-01,-3.930015861988067627e-01,9.634528309106826782e-02,1.067216396331787109e+00,-5.407443642616271973e-01,-2.976820766925811768e-01,-2.114986628293991089e-01,-2.215718775987625122e-01,-1.503796726465225220e-01,-4.967334866523742676e-01,-3.006505668163299561e-01,2.409675121307373047e-01,-2.107755839824676514e-01,-8.645595312118530273e-01,-3.233312368392944336e-01,0.000000000000000000e+00,-8.339903354644775391e-01,1.493974924087524414e-01,2.011524736881256104e-01,-5.096408128738403320e-01,0.000000000000000000e+00,7.759281396865844727e-01,5.374901890754699707e-01,-9.251626208424568176e-03,1.450337320566177368e-01,3.965269327163696289e-01,3.219385147094726562e-01,-7.004658877849578857e-02,1.000000000000000000e+00
9.325028061866760254e-01,-1.212913870811462402e+00,-8.151372075080871582e-01,-4.070203006267547607e-01,-9.516990184783935547e-01,1.143096446990966797e+00,2.567965686321258545e-01,4.548059999942779541e-01,-6.587582230567932129e-01,2.620866000652313232e-01,1.064082503318786621e+00,-7.083047628402709961e-01,-2.220026701688766479e-01,7.651696205139160156e-01,-6.093071699142456055e-01,3.955559134483337402e-01,-4.606926739215850830e-01,5.134883522987365723e-01,-1.996334642171859741e-01,-1.174360606819391251e-02,-6.692041754722595215e-01,-2.291570231318473816e-02,1.053756237030029297e+00,-2.199966758489608765e-01,-2.540561258792877197e-01,7.078588604927062988e-01,1.477929592132568359e+00,2.722607254981994629e-01,-1.768345981836318970e-01,-8.323749899864196777e-01,1.000000000000000000e+00
-1.037935391068458557e-01,1.333176642656326294e-01,-2.998435199260711670e-01,-4.980789422988891602e-01,-1.628640741109848022e-01,-5.432233810424804688e-01,7.661194205284118652e-01,0.000000000000000000e+00,2.395539358258247375e-02,-4.231027960777282715e-01,4.959724098443984985e-02,-5.880785733461380005e-02,-6.568564567714929581e-03,-5.811949968338012695e-01,9.861799329519271851e-02,-3.165623247623443604e-01,2.323235869407653809e-01,-1.865780502557754517e-01,0.000000000000000000e+00,-4.372525215148925781e-01,-2.745416574180126190e-02,6.873755156993865967e-02,-1.943429373204708099e-02,-3.728341162204742432e-01,9.459154307842254639e-02,4.482473134994506836e-01,-7.363978028297424316e-01,2.377121001482009888e-01,2.049466036260128021e-02,-6.365518569946289062e-01,0.000000000000000000e+00
6.865603327751159668e-01,6.219969987869262695e-01,8.926924467086791992e-01,4.128074944019317627e-01,-6.082395315170288086e-01,-5.296748280525207520e-01,0.000000000000000000e+00,2.704990506172180176e-01,6.298025846481323242e-01,1.009106993675231934e+00,-4.755236804485321045e-01,-1.043245553970336914e+00,-5.768568515777587891e-01,-8.307495713233947754e-01,2.758462131023406982e-01,1.456944704055786133e+00,7.283539045602083206e-03,1.238510131835937500e+00,4.137631058692932129e-01,-6.489750146865844727e-01,-1.140515446662902832e+00,-6.902625560760498047e-01,-8.074938058853149414e-01,-3.458926975727081299e-01,2.374082803726196289e-01,-1.340706110000610352e+00,-1.096553444862365723e+00,-8.320760726928710938e-01,-1.843926124274730682e-02,-3.555296361446380615e-01,1.000000000000000000e+00
5.666553378105163574e-01,-6.240017414093017578e-01,-1.115464210510253906e+00,-3.038017153739929199e-01,5.949411988258361816e-01,-6.005741357803344727e-01,-5.996721386909484863e-01,-2.995871305465698242e-01,-3.681030571460723877e-01,0.000000000000000000e+00,-3.131612837314605713e-01,9.566993117332458496e-01,2.654144763946533203e-01,2.798294723033905029e-01,3.169645071029663086e-01,-7.123780846595764160e-01,-9.480348974466323853e-02,-9.844928383827209473e-01,7.762575149536132812e-02,8.833703994750976562e-01,3.873000666499137878e-02,0.000000000000000000e+00,7.306886315345764160e-01,-3.697785139083862305e-01,-5.627267956733703613e-01,-6.032263040542602539e-01,1.858843863010406494e-02,0.000000000000000000e+00,7.669485211372375488e-01,-1.279869079589843750e-01,0.000000000000000000e+00
2.893899381160736084e-01,-1.593405365943908691e+00,2.033809944987297058e-02,6.409884095191955566e-01,-3.195567801594734192e-02,-6.265523433685302734e-01,5.285852551460266113e-01,-6.019911766052246094e-01,-7.249396443367004395e-01,-1.364371299743652344e+00,-1.105636715888977051e+00,0.000000000000000000e+00,-5.765931606292724609e-01,9.886092739179730415e-04,0.000000000000000000e+00,-1.410321593284606934e+00,1.507706522941589355e+00,-1.376009583473205566e+00,-2.446781396865844727e-01,-5.953669548034667969e-01,0.000000000000000000e+00,-9.744722396135330200e-02,-1.183451294898986816e+00,-3.432778418064117432e-01,-1.588186919689178467e-01,2.842243313789367676e-01,-5.940226912498474121e-01,4.908720850944519043e-01,0.000000000000000000e+00,-8.017849922180175781e-01,1.000000000000000000e+00
8.977094888687133789e-01,3.868425488471984863e-01,-2.067060768604278564e-01,3.061796724796295166e-01,6.717950701713562012e-01,-2.186919748783111572e-01,-8.356371521949768066e-01,-3.436794281005859375e-01,1.397221535444259644e-01,5.250086784362792969e-01,0.000000000000000000e+00,-8.274000138044357300e-02,0.000000000000000000e+00,-9.876773357391357422e-01,0.000000000000000000e+00,9.468716979026794434e-01,5.886607766151428223e-01,0.000000000000000000e+00,-7.923741340637207031e-01,2.468682229518890381e-01,5.109846591949462891e-01,-4.047062098979949951e-01,6.907577514648437500e-01,3.296266794204711914e-01,-9.567535519599914551e-01,1.358512192964553833e-01,-1.479622423648834229e-01,0.000000000000000000e+00,7.370352745056152344e-02,0.000000000000000000e+00,0.000000000000000000e+00
-9.346468001604080200e-02,8.971522450447082520e-01,0.000000000000000000e+00,-1.155871987342834473e+00,5.548083186149597168e-01,-6.798332333564758301e-01,-6.166130304336547852e-01,-1.805170327425003052e-01,-1.033075571060180664e+00,-2.625080645084381104e-01,7.757869958877563477e-01,0.000000000000000000e+00,-4.303359612822532654e-02,-9.374777972698211670e-02,-1.742408573627471924e-01,-1.434010982513427734e+00,-8.383572101593017578e-01,-5.998359322547912598e-01,2.613363564014434814e-01,1.303234815597534180e+00,0.000000000000000000e+00,7.033582925796508789e-01,7.659192085266113281e-01,-2.899128794670104980e-01,-5.722826123237609863e-01,-1.325763165950775146e-01,3.971181511878967285e-01,-8.763898611068725586e-01,-9.287295937538146973e-01,1.411147594451904297e+00,1.000000000000000000e+00
2.032710075378417969e+00,-1.177735805511474609e+00,-1.632208228111267090e+00,2.325695753097534180e+00,-7.619709372520446777e-01,4.521045088768005371e-01,-9.830957651138305664e-01,-8.487970829010009766e-01,2.506171464920043945e+00,-1.146024703979492188e+00,2.882187128067016602e+00,-2.159526050090789795e-01,3.140749037265777588e-01,-6.136098504066467285e-01,-1.127257943153381348e+00,2.639930009841918945e+00,-1.484465450048446655e-01,-3.514465391635894775e-01,4.396133720874786377e-01,-1.778991073369979858e-01,-5.435831546783447266e-01,-1.130867481231689453e+00,2.627527475357055664e+00,-1.233066201210021973e+00,2.863547086715698242e+00,1.872493863105773926e+00,2.224142313003540039e+00,2.559597790241241455e-01,0.000000000000000000e+00,5.535250306129455566e-01,1.000000000000000000e+00
-5.543847680091857910e-01,1.046604067087173462e-01,-5.503804087638854980e-01,-8.595534563064575195e-01,-8.778683543205261230e-01,1.076367218047380447e-02,5.469045639038085938e-01,-8.659471273422241211e-01,-1.230534464120864868e-01,-3.535806834697723389e-01,3.076545149087905884e-02,-4.670009613037109375e-01,-5.242937803268432617e-01,-4.297001361846923828e-01,-8.409742116928100586e-01,-1.254563927650451660e-01,4.332782924175262451e-01,1.829320341348648071e-01,4.266310334205627441e-01,1.859619617462158203e-01,1.279322654008865356e-01,-2.407665848731994629e-01,-2.406667172908782959e-01,-7.408794760704040527e-02,-5.912732481956481934e-01,-7.409600615501403809e-01,-3.228679001331329346e-01,0.000000000000000000e+00,1.581035107374191284e-01,-2.927703261375427246e-01,1.000000000000000000e+00
9.632343649864196777e-01,6.524995435029268265e-03,-1.160503268241882324e+00,4.983313977718353271e-01,-7.291681766510009766e-01,0.000000000000000000e+00,3.779768347740173340e-01,1.114255096763372421e-02,-2.209136337041854858e-01,1.146254897117614746e+00,-1.196377910673618317e-02,7.395724207162857056e-02,-3.148551881313323975e-01,9.364314079284667969e-01,-3.094618916511535645e-01,-4.653427004814147949e-01,-5.293325185775756836e-01,-1.076539635658264160e+00,5.518053770065307617e-01,7.136486768722534180e-01,1.168738245964050293e+00,-9.520748853683471680e-01,6.368812918663024902e-02,8.026858568191528320e-01,-1.130035877227783203e+00,-1.997652277350425720e-02,-1.237920761108398438e+00,-7.257924675941467285e-01,0.000000000000000000e+00,-7.648832201957702637e-01,1.000000000000000000e+00
1.156032681465148926e+00,-1.028047561645507812e+00,1.171232938766479492e+00,1.468499563634395599e-02,-6.739597916603088379e-01,-1.360355854034423828e+00,-4.182631671428680420e-01,-1.221569254994392395e-01,-6.391064524650573730e-01,-6.907056570053100586e-01,-2.026547305285930634e-02,5.416660308837890625e-01,6.358120590448379517e-02,2.783955335617065430e-01,4.019500911235809326e-01,-3.134783506393432617e-01,4.065556824207305908e-01,0.000000000000000000e+00,-7.458521723747253418e-01,0.000000000000000000e+00,0.000000000000000000e+00,3.730615675449371338e-01,-1.088804721832275391e+00,-6.856325268745422363e-01,8.255272358655929565e-02,3.635030090808868408e-01,-5.078487396240234375e-01,-2.204765826463699341e-01,-8.696946501731872559e-01,3.033787608146667480e-01,1.000000000000000000e+00
-3.097877139225602150e-03,-7.783694863319396973e-01,-3.354023993015289307e-01,2.941325902938842773e-01,-2.049764692783355713e-01,1.320875525474548340e+00,3.097152709960937500e-01,7.831305861473083496e-01,-3.665603995323181152e-01,8.528171181678771973e-01,5.434331893920898438e-01,6.722537428140640259e-02,-1.264672279357910156e-01,3.356463015079498291e-01,3.621549308300018311e-01,6.506148576736450195e-01,0.000000000000000000e+00,8.331605195999145508e-01,5.041969418525695801e-01,3.301107585430145264e-01,-5.386466979980468750e-01,-1.352720111608505249e-01,5.040341615676879883e-01,2.799617946147918701e-01,1.168210282921791077e-01,3.716293275356292725e-01,6.495432257652282715e-01,6.849588155746459961e-01,5.610204488039016724e-02,-1.277345657348632812e+00,1.000000000000000000e+00
1.881772994995117188e+00,2.492018043994903564e-01,-1.432684779167175293e+00,0.000000000000000000e+00,-1.828045368194580078e+00,-1.712052822113037109e-01,-2.538902282714843750e+00,-1.298195242881774902e+00,1.598837494850158691e+00,-1.441260457038879395e+00,1.718422770500183105e+00,2.300867289304733276e-01,8.303287625312805176e-01,0.000000000000000000e+00,-1.068425416946411133e+00,1.576849937438964844e+00,-4.595589637756347656e-02,6.078396439552307129e-01,1.312618017196655273e+00,-1.036922574043273926e+00,-7.388184070587158203e-01,-1.021559238433837891e+00,1.564499497413635254e+00,-9.331123232841491699e-01,0.000000000000000000e+00,0.000000000000000000e+00,2.064676284790039062e+00,1.423412680625915527e+00,-1.245100259780883789e+00,3.775870203971862793e-01,1.000000000000000000e+00
7.723804116249084473e-01,-2.677546739578247070e-01,0.000000000000000000e+00,-1.304207295179367065e-01,-1.421406745910644531e+00,-6.922025680541992188e-01,1.428866237401962280e-01,-1.939933001995086670e-01,0.000000000000000000e+00,0.000000000000000000e+00,2.100433111190795898e-01,2.693974673748016357e-01,-1.325469374656677246e+00,3.040200173854827881e-01,0.000000000000000000e+00,-5.944909453392028809e-01,4.173107445240020752e-01,-2.471679002046585083e-01,-1.293918490409851074e-01,3.395863473415374756e-01,-1.295863389968872070e-01,-7.937612384557723999e-02,-1.458786368370056152e+00,1.122124716639518738e-01,6.938011646270751953e-01,5.328232422471046448e-02,-2.173042446374893188e-01,-7.113207578659057617e-01,5.412574410438537598e-01,-2.572864890098571777e-01,1.000000000000000000e+00
-5.244873166084289551e-01,-5.005316138267517090e-01,-6.183561682701110840e-01,-4.474167227745056152e-01,-4.666819050908088684e-02,-8.356673717498779297e-01,0.000000000000000000e+00,-4.525278806686401367e-01,-5.907092094421386719e-01,-2.655003666877746582e-01,-4.955092445015907288e-02,-5.864051729440689087e-02,-3.165048956871032715e-01,-9.003488421440124512e-01,1.352526545524597168e-01,0.000000000000000000e+00,7.419868111610412598e-01,-3.280955851078033447e-01,3.050514459609985352e-01,1.139762699604034424e-01,0.000000000000000000e+00,3.990517258644104004e-01,2.236201167106628418e-01,-4.948010295629501343e-02,-2.396453171968460083e-01,-2.817019820213317871e-01,3.628822863101959229e-01,-3.612687345594167709e-03,3.439428508281707764e-01,-3.369663953781127930e-01,0.000000000000000000e+00
1.331726163625717163e-01,0.000000000000000000e+00,-1.493450254201889038e-01,-4.131798744201660156e-01,4.652761518955230713e-01,-8.855966925621032715e-01,-7.699417322874069214e-02,4.909247457981109619e-01,-1.809627413749694824e-01,-4.498147591948509216e-02,-2.849931418895721436e-01,6.733223199844360352e-01,-8.682636618614196777e-01,0.000000000000000000e+00,-5.459675192832946777e-01,-7.107378840446472168e-01,-5.754239559173583984e-01,4.020845890045166016e-01,0.000000000000000000e+00,0.000000000000000000e+00,5.034927129745483398e-01,-1.606315225362777710e-01,-1.547064781188964844e-01,0.000000000000000000e+00,-5.273503065109252930e-01,-2.474128603935241699e-01,3.241394162178039551e-01,-1.298794984817504883e+00,-2.680996656417846680e-01,8.751024007797241211e-01,0.000000000000000000e+00
2.392673343420028687e-01,2.365754842758178711e-01,2.849413454532623291e-02,6.997768282890319824e-01,-2.485363185405731201e-01,8.374955058097839355e-01,2.373782247304916382e-01,0.000000000000000000e+00,-4.630436003208160400e-01,3.142843842506408691e-01,4.532654583454132080e-01,-3.508039116859436035e-01,-1.056307554244995117e+00,3.490832149982452393e-01,-2.691087722778320312e-01,-8.408553153276443481e-02,6.896994262933731079e-02,5.138153433799743652e-01,8.057380318641662598e-01,7.323045730590820312e-01,-1.392066571861505508e-02,-9.848304390907287598e-01,-7.776027172803878784e-02,7.024024724960327148e-01,7.963600754737854004e-01,7.425350546836853027e-01,6.388610005378723145e-01,8.595314025878906250e-01,0.000000000000000000e+00,-1.072919845581054688e+00,1.000000000000000000e+00
-2.827091515064239502e-01,-1.270729899406433105e-01,-6.927959918975830078e-01,4.804293438792228699e-02,-3.001911938190460205e-01,-7.754367589950561523e-01,1.138428688049316406e+00,4.351991415023803711e-02,-3.213782310485839844e-01,-9.225622415542602539e-01,4.814078509807586670e-01,2.623212039470672607e-01,-6.126025915145874023e-01,-3.581919074058532715e-01,1.987408101558685303e-02,-7.384061217308044434e-01,9.988636970520019531e-01,-3.279030025005340576e-01,-5.876740217208862305e-01,-5.805637240409851074e-01,0.000000000000000000e+00,7.283315062522888184e-01,-3.815524578094482422e-01,-1.455215960741043091e-01,-2.063098847866058350e-01,6.798451542854309082e-01,-8.756121993064880371e-01,6.835847496986389160e-01,7.074691057205200195e-01,-9.505311846733093262e-01,1.000000000000000000e+00
-7.972564697265625000e-01,-3.661158382892608643e-01,-3.419655859470367432e-01,1.765469759702682495e-01,-6.668987274169921875e-01,5.605863928794860840e-01,0.000000000000000000e+00,8.215676546096801758e-01,-6.011831760406494141e-01,-1.096497774124145508e+00,-1.004475831985473633e+00,6.946432590484619141e-02,0.000000000000000000e+00,3.895792365074157715e-01,-3.715554773807525635e-01,-1.413040280342102051e+00,7.124640345573425293e-01,-3.973172903060913086e-01,-7.860577702522277832e-01,5.437884926795959473e-01,3.073666393756866455e-01,9.225850552320480347e-02,-4.611460864543914795e-01,3.140526413917541504e-01,1.507263422012329102e+00,0.000000000000000000e+00,1.528088599443435669e-01,9.882226586341857910e-01,3.001580834388732910e-01,-6.097182631492614746e-01,1.000000000000000000e+00
2.080873399972915649e-01,1.213180899620056152e+00,7.122235894203186035e-01,5.588710308074951172e-01,-3.824416399002075195e-01,4.316166639328002930e-01,0.000000000000000000e+00,0.000000000000000000e+00,5.684186816215515137e-01,8.072254657745361328e-01,-4.645259082317352295e-01,-5.779129266738891602e-01,-1.082647591829299927e-01,-1.516189891844987869e-02,6.015726327896118164e-01,6.715603470802307129e-01,0.000000000000000000e+00,1.276110053062438965e+00,-1.001932621002197266e-01,4.200426638126373291e-01,-8.728805184364318848e-01,-1.240096688270568848e+00,-9.348964095115661621e-01,0.000000000000000000e+00,8.583757281303405762e-01,-1.550138741731643677e-01,-4.151991605758666992e-01,-5.506226420402526855e-01,-3.259958326816558838e-01,0.000000000000000000e+00,1.000000000000000000e+00
4.633332490921020508e-01,-1.849564015865325928e-01,9.431794285774230957e-01,-6.689086556434631348e-01,2.269646972417831421e-01,8.963426202535629272e-02,7.311260104179382324e-01,4.909560382366180420e-01,-5.959286689758300781e-01,1.413666009902954102e-01,-5.963653326034545898e-01,1.020945787429809570e+00,0.000000000000000000e+00,2.609436213970184326e-01,-1.276235103607177734e+00,-1.455708861351013184e+00,1.084752440452575684e+00,-4.999362528324127197e-01,1.378106772899627686e-01,-2.994723320007324219e-01,9.237064719200134277e-01,-1.336005032062530518e-01,5.155344009399414062e-01,2.193601578474044800e-01,-2.022936493158340454e-01,1.245309352874755859e+00,7.430663704872131348e-01,-3.724452555179595947e-01,1.088216304779052734e+00,-2.148178033530712128e-02,1.000000000000000000e+00
0.000000000000000000e+00,9.446187019348144531e-01,-3.140524625778198242e-01,-5.472196340560913086e-01,-2.329921126365661621e-01,1.032932996749877930e+00,0.000000000000000000e+00,3.078438900411128998e-02,-6.940151005983352661e-02,1.194145202636718750e+00,3.275538384914398193e-01,4.724957421422004700e-02,-1.456874608993530273e-01,5.054721236228942871e-01,1.065468192100524902e+00,3.891467452049255371e-01,-8.108726143836975098e-01,-2.333112247288227081e-02,-6.525154113769531250e-01,-1.332655429840087891e+00,0.000000000000000000e+00,-6.340653300285339355e-01,1.189818382263183594e-01,-6.625031232833862305e-01,9.670007228851318359e-01,9.850446581840515137e-01,7.198604345321655273e-01,0.000000000000000000e+00,3.379495143890380859e-01,-5.336775779724121094e-01,1.000000000000000000e+00
0.000000000000000000e+00,-8.541152477264404297e-01,-1.067702695727348328e-01,-2.330845743417739868e-01,3.382144570350646973e-01,0.000000000000000000e+00,0.000000000000000000e+00,-2.305625826120376587e-01,-9.965358767658472061e-04,7.695112228393554688e-01,7.641927599906921387e-01,5.463484525680541992e-01,-1.942356824874877930e-01,5.228064656257629395e-01,5.016489028930664062e-01,9.666634798049926758e-01,-4.772863388061523438e-01,4.127065241336822510e-01,2.594918012619018555e-01,-6.631652712821960449e-01,-3.328649401664733887e-01,-5.135648846626281738e-01,6.649402976036071777e-01,3.423410356044769287e-01,0.000000000000000000e+00,1.121001124382019043e+00,8.052703738212585449e-01,-1.693105995655059814e-01,9.140051156282424927e-02,-3.798405826091766357e-01,1.000000000000000000e+00
7.305880188941955566e-01,-3.972695469856262207e-01,-2.842200398445129395e-01,-1.088069230318069458e-01,-2.530964016914367676e-01,1.607636690139770508e+00,-1.779136508703231812e-01,6.688501834869384766e-01,2.257035076618194580e-01,3.375937640666961670e-01,4.319755733013153076e-02,1.675670444965362549e-01,-8.324305713176727295e-02,2.068972289562225342e-01,-1.945554316043853760e-01,-2.518862485885620117e-01,0.000000000000000000e+00,4.862604290246963501e-02,-2.773970961570739746e-01,-8.471400290727615356e-02,0.000000000000000000e+00,-5.780472755432128906e-01,-9.607466310262680054e-02,6.975730415433645248e-03,7.379224896430969238e-01,7.324982285499572754e-01,5.832580327987670898e-01,4.938699305057525635e-01,3.617343008518218994e-01,-3.800013065338134766e-01,1.000000000000000000e+00
4.233003258705139160e-01,-9.301986098289489746e-01,-1.549520254135131836e+00,-5.272375941276550293e-01,-1.806983165442943573e-02,-8.790909051895141602e-01,-4.288364946842193604e-01,-1.017161726951599121e+00,-4.334038496017456055e-01,1.465504467487335205e-01,8.834954500198364258e-01,1.153671145439147949e+00,1.026604533195495605e+00,1.374243974685668945e+00,-1.224861145019531250e+00,-5.861032009124755859e-01,-1.603286117315292358e-01,4.891751110553741455e-01,-1.128054410219192505e-02,0.000000000000000000e+00,5.043307542800903320e-01,1.019391939043998718e-01,-2.025199383497238159e-01,-8.528676629066467285e-01,3.268130421638488770e-01,2.646439671516418457e-01,-1.083958745002746582e+00,1.026510596275329590e+00,1.115694880485534668e+00,1.312370538711547852e+00,1.000000000000000000e+00
9.709612727165222168e-01,-1.259591937065124512e+00,-3.846364617347717285e-01,-3.981902599334716797e-01,3.884987533092498779e-01,8.296284675598144531e-01,6.207485198974609375e-01,5.644794702529907227e-01,-7.647828459739685059e-01,0.000000000000000000e+00,1.004601359367370605e+00,-9.460074305534362793e-01,-2.817681133747100830e-01,-2.043805271387100220e-01,-1.186113119125366211e+00,-1.254296004772186279e-01,-2.268403321504592896e-01,-1.694150418043136597e-01,-8.766816854476928711e-01,1.168359279632568359e+00,-5.577450394630432129e-01,4.663322567939758301e-01,0.000000000000000000e+00,1.719680577516555786e-01,7.458093166351318359e-01,0.000000000000000000e+00,8.568787574768066406e-01,8.291940689086914062e-01,-6.670045107603073120e-02,-5.641654729843139648e-01,1.000000000000000000e+00
7.696942090988159180e-01,-4.689109027385711670e-01,8.432902693748474121e-01,-6.165959835052490234e-01,-5.940946340560913086e-01,-9.030000567436218262e-01,-1.652408987283706665e-01,-1.006736904382705688e-01,-2.654980123043060303e-01,-3.414760231971740723e-01,-1.125168353319168091e-01,0.000000000000000000e+00,-8.737957477569580078e-01,-3.240340389311313629e-03,3.154610991477966309e-01,-7.388019561767578125e-02,3.245435357093811035e-01,1.272664070129394531e-01,-5.056831240653991699e-01,2.257202118635177612e-01,-3.013314306735992432e-01,2.324058115482330322e-02,0.000000000000000000e+00,-1.532955020666122437e-01,2.856811285018920898e-01,2.966796457767486572e-01,-1.080445200204849243e-01,-6.050941348075866699e-01,-7.158783078193664551e-02,1.297532618045806885e-01,1.000000000000000000e+00
-6.576929092407226562e-01,5.390318632125854492e-01,-7.100706696510314941e-01,-1.057631969451904297e+00,-3.147204816341400146e-01,2.477309554815292358e-01,4.132488369941711426e-01,-7.237556576728820801e-01,1.943230926990509033e-01,-1.522273272275924683e-01,8.335312008857727051e-01,5.708014126867055893e-03,2.914491891860961914e-01,-4.561192989349365234e-01,-5.223230719566345215e-01,3.681452572345733643e-01,9.444023668766021729e-02,-3.319872319698333740e-01,3.862060308456420898e-01,3.614138364791870117e-01,2.618776634335517883e-02,1.511110067367553711e-01,-6.312993168830871582e-02,0.000000000000000000e+00,-4.748950898647308350e-01,-4.949503839015960693e-01,-5.499218106269836426e-01,2.699720561504364014e-01,-3.711223602294921875e-02,2.953963577747344971e-01,0.000000000000000000e+00
-4.844627678394317627e-01,-1.173264458775520325e-01,3.091354668140411377e-01,0.000000000000000000e+00,-8.815212845802307129e-01,7.102807164192199707e-01,-1.285855293273925781e+00,1.201642081141471863e-01,-9.902444481849670410e-01,-3.955999910831451416e-01,-9.437144398689270020e-01,7.889907360076904297e-01,-1.941631734371185303e-01,2.583911418914794922e-01,0.000000000000000000e+00,-8.037800192832946777e-01,1.109594479203224182e-01,-3.438560366630554199e-01,4.585887193679809570e-01,2.243283540010452271e-01,7.444023489952087402e-01,-5.269585251808166504e-01,0.000000000000000000e+00,3.710607811808586121e-02,6.555574536323547363e-01,-1.869936883449554443e-01,3.500593006610870361e-01,2.240632534027099609e+00,2.681161463260650635e-01,-5.625476837158203125e-01,1.000000000000000000e+00
-4.437179267406463623e-01,-8.966482281684875488e-01,0.000000000000000000e+00,1.031863927841186523e+00,7.581088691949844360e-02,-1.011670380830764771e-01,3.728974759578704834e-01,-6.104709953069686890e-02,3.533980548381805420e-01,-1.217045068740844727e+00,6.708089113235473633e-01,4.509739875793457031e-01,-6.303049921989440918e-01,2.750946581363677979e-02,-1.029649019241333008e+00,-1.089395806193351746e-01,0.000000000000000000e+00,-1.134117096662521362e-01,-5.967490077018737793e-01,2.332197473151609302e-04,1.317258775234222412e-01,0.000000000000000000e+00,-1.034208014607429504e-01,2.922625243663787842e-01,4.140523076057434082e-01,7.157616019248962402e-01,2.975603640079498291e-01,7.192435264587402344e-01,7.611051201820373535e-01,-3.329156041145324707e-01,1.000000000000000000e+00
-1.303716450929641724e-01,-6.148509383201599121e-01,0.000000000000000000e+00,-7.354269027709960938e-01,5.079861879348754883e-01,3.982588648796081543e-01,5.356888771057128906e-01,5.948838591575622559e-01,0.000000000000000000e+00,-2.681094408035278320e-01,-4.289456307888031006e-01,5.970741510391235352e-01,-2.339250594377517700e-01,0.000000000000000000e+00,-1.703116536140441895e+00,-1.422038912773132324e+00,8.845193386077880859e-01,-3.566033244132995605e-01,-2.206586748361587524e-01,-2.059987932443618774e-01,5.308622121810913086e-01,-1.306050866842269897e-01,8.836618810892105103e-02,0.000000000000000000e+00,0.000000000000000000e+00,1.385273694992065430e+00,9.226977825164794922e-01,2.160722017288208008e-01,0.000000000000000000e+00,-2.789893746376037598e-01,1.000000000000000000e+00
-1.106167435646057129e+00,6.401429772377014160e-01,-6.410716772079467773e-01,-7.266880869865417480e-01,-1.048031300306320190e-01,0.000000000000000000e+00,1.171340584754943848e+00,-9.578160047531127930e-01,-1.152038097381591797e+00,-1.125142574310302734e+00,2.875115573406219482e-01,-8.273069560527801514e-02,-1.142739415168762207e+00,-7.083813846111297607e-02,-1.401719331741333008e+00,-5.947841405868530273e-01,0.000000000000000000e+00,-3.717856109142303467e-01,-7.796940207481384277e-02,7.664789557456970215e-01,0.000000000000000000e+00,0.000000000000000000e+00,-2.220994979143142700e-02,5.246162414550781250e-01,-3.272859752178192139e-01,-7.084811925888061523e-01,-3.599977791309356689e-01,0.000000000000000000e+00,4.652605652809143066e-01,2.890732884407043457e-01,1.000000000000000000e+00
3.275959491729736328e-01,-5.265300869941711426e-01,-9.838551282882690430e-01,0.000000000000000000e+00,2.991153299808502197e-01,-6.286184191703796387e-01,-7.718786001205444336e-01,-2.955194413661956787e-01,-7.572140097618103027e-01,-6.312327384948730469e-01,6.948610395193099976e-02,1.489245057106018066e+00,0.000000000000000000e+00,4.663593769073486328e-01,-1.427304092794656754e-02,-2.905383706092834473e-01,0.000000000000000000e+00,-8.101895451545715332e-01,3.214173018932342529e-01,1.260891556739807129e+00,4.357446134090423584e-01,4.562368094921112061e-01,6.430537700653076172e-01,-4.828411340713500977e-01,-5.802903175354003906e-01,-5.395557284355163574e-01,4.009881615638732910e-01,-5.890991687774658203e-01,2.867240607738494873e-01,-5.902208015322685242e-02,0.000000000000000000e+00
-6.628584265708923340e-01,0.000000000000000000e+00,1.997563689947128296e-01,0.000000000000000000e+00,3.249651491641998291e-01,-1.079022958874702454e-01,-3.776578307151794434e-01,4.550261199474334717e-01,-3.049184978008270264e-01,-8.453649282455444336e-02,-2.107195705175399780e-01,3.221949636936187744e-01,-5.388789810240268707e-03,2.478196322917938232e-01,7.304850816726684570e-01,-3.973138630390167236e-01,5.149981975555419922e-01,3.396130800247192383e-01,-8.414143323898315430e-01,3.973757326602935791e-01,1.500572860240936279e-01,0.000000000000000000e+00,-8.202549219131469727e-01,0.000000000000000000e+00,1.076731324195861816e+00,2.127138525247573853e-01,0.000000000000000000e+00,-2.413412928581237793e-01,1.056099012494087219e-01,-4.947441816329956055e-01,0.000000000000000000e+00
1.175161838531494141e+00,-1.669978022575378418e+00,3.429845571517944336e-01,7.984506338834762573e-02,-4.513350129127502441e-01,-7.303089499473571777e-01,-6.433873176574707031e-01,-7.021924257278442383e-01,-6.058657169342041016e-01,-1.162868380546569824e+00,-1.065996289253234863e+00,1.314261555671691895e-01,0.000000000000000000e+00,3.769805282354354858e-02,0.000000000000000000e+00,-1.058234333992004395e+00,1.039153814315795898e+00,-1.521612167358398438e+00,-4.651523232460021973e-01,-3.455151915550231934e-01,-1.792733669281005859e-01,2.448724061250686646e-01,-6.108746528625488281e-01,-1.087646126747131348e+00,-1.595530956983566284e-01,1.112280488014221191e+00,-4.891496598720550537e-01,7.126969099044799805e-02,-9.195672464556992054e-04,0.000000000000000000e+00,1.000000000000000000e+00
-2.377580106258392334e-01,2.034205347299575806e-01,-1.054977178573608398e+00,2.125010639429092407e-01,-1.184211224317550659e-01,-4.937802553176879883e-01,5.635493993759155273e-01,-7.582149654626846313e-02,1.086222976446151733e-01,0.000000000000000000e+00,1.150161981582641602e+00,2.234671264886856079e-01,0.000000000000000000e+00,-5.232108235359191895e-01,6.440922617912292480e-01,-1.101604476571083069e-01,4.230518043041229248e-01,-4.015010595321655273e-01,-4.427608847618103027e-01,0.000000000000000000e+00,2.939471602439880371e-01,0.000000000000000000e+00,0.000000000000000000e+00,-5.591876506805419922e-01,-2.174247503280639648e-01,1.224359631538391113e+00,-1.163703441619873047e+00,0.000000000000000000e+00,1.374612301588058472e-01,-1.664138138294219971e-01,0.000000000000000000e+00
-7.716638445854187012e-01,1.078262180089950562e-02,-8.660430908203125000e-01,-1.065764427185058594e+00,0.000000000000000000e+00,2.935669422149658203e-01,9.627496600151062012e-01,-1.082871079444885254e+00,-1.410040974617004395e+00,-7.158806920051574707e-01,0.000000000000000000e+00,-1.076908558607101440e-01,-8.301286101341247559e-01,-1.705930382013320923e-01,-1.010083556175231934e+00,-4.982170462608337402e-01,1.191459894180297852e+00,-8.894314169883728027e-01,0.000000000000000000e+00,2.871584892272949219e-01,8.009254932403564453e-01,0.000000000000000000e+00,1.125459894537925720e-01,7.972522079944610596e-02,-3.564430475234985352e-01,-5.695046782493591309e-01,-1.266430616378784180e-01,1.081084370613098145e+00,3.053528070449829102e-01,8.111230283975601196e-02,1.000000000000000000e+00
-7.599542737007141113e-01,-8.559104204177856445e-01,-3.987670540809631348e-01,-2.459403276443481445e-01,1.626109480857849121e-01,-7.749571204185485840e-01,4.237097799777984619e-01,-8.331003040075302124e-02,3.849478811025619507e-02,-1.592889726161956787e-01,-6.861963868141174316e-01,0.000000000000000000e+00,1.011327952146530151e-01,-1.079262852668762207e+00,1.187093108892440796e-01,-2.308209091424942017e-01,4.170452952384948730e-01,2.088095396757125854e-01,5.083175897598266602e-01,-1.028662621974945068e-01,4.384813904762268066e-01,3.817535340785980225e-01,0.000000000000000000e+00,-4.512909948825836182e-01,-7.612915039062500000e-01,-6.433488726615905762e-01,1.137657016515731812e-01,1.116172000765800476e-01,-8.460250496864318848e-02,-5.875536799430847168e-01,1.000000000000000000e+00
2.213927984237670898e+00,-5.271135568618774414e-01,-4.377221167087554932e-01,0.000000000000000000e+00,4.496206063777208328e-03,-8.547930717468261719e-01,2.041592836380004883e+00,1.512025952339172363e+00,3.059395849704742432e-01,0.000000000000000000e+00,-1.224812746047973633e+00,0.000000000000000000e+00,7.244670987129211426e-01,7.038999199867248535e-01,-1.264119386672973633e+00,2.123576551675796509e-01,-2.240427732467651367e+00,4.275030493736267090e-01,2.246588945388793945e+00,7.613905668258666992e-01,2.655008137226104736e-01,-1.755227565765380859e+00,-1.262537956237792969e+00,3.281550481915473938e-02,-1.261175990104675293e+00,-2.224137783050537109e+00,-4.000012278556823730e-01,-1.728974103927612305e+00,-3.664918243885040283e-01,5.602295994758605957e-01,1.000000000000000000e+00
-7.762609720230102539e-01,-1.100551605224609375e+00,2.314707487821578979e-01,-3.332177922129631042e-02,0.000000000000000000e+00,8.163240551948547363e-02,2.771204113960266113e-01,-4.624060690402984619e-01,-6.654306054115295410e-01,-2.366612479090690613e-02,9.499871730804443359e-01,8.390030264854431152e-01,-8.281928300857543945e-01,1.640505343675613403e-01,8.773406594991683960e-02,2.433167695999145508e-01,3.969440460205078125e-01,3.439894914627075195e-01,2.874430827796459198e-02,2.386339306831359863e-01,-1.614523679018020630e-01,-5.271088480949401855e-01,7.329997420310974121e-02,1.093132019042968750e+00,-3.140603005886077881e-01,1.572527527809143066e+00,7.154418230056762695e-01,2.768116891384124756e-01,5.958789587020874023e-01,-2.988277971744537354e-01,1.000000000000000000e+00
7.365955114364624023e-01,1.587541699409484863e+00,9.023632407188415527e-01,7.183508276939392090e-01,6.762451529502868652e-01,1.910941481590270996e+00,-6.836131215095520020e-01,1.231621503829956055e+00,0.000000000000000000e+00,2.527980566024780273e+00,0.000000000000000000e+00,-1.380714308470487595e-02,1.299021005630493164e+00,1.321667671203613281e+00,1.772779941558837891e+00,1.111302137374877930e+00,-2.120621204376220703e+00,1.207993507385253906e+00,2.892561554908752441e-01,-2.005177497863769531e+00,7.459667325019836426e-02,-3.839806914329528809e-01,1.799568831920623779e-01,-1.112756729125976562e+00,-7.876464128494262695e-01,4.937444925308227539e-01,4.484830498695373535e-01,2.294501304626464844e+00,-9.804590344429016113e-01,-1.160709857940673828e+00,1.000000000000000000e+00
-3.016239404678344727e-01,7.587352395057678223e-01,1.662330627441406250e-01,0.000000000000000000e+00,1.010292842984199524e-01,-6.928696632385253906e-01,-3.484002947807312012e-01,9.467209875583648682e-02,1.940724849700927734e-01,-7.704606056213378906e-01,1.553466916084289551e+00,2.794944941997528076e-01,5.964587926864624023e-01,1.252053856849670410e+00,0.000000000000000000e+00,1.036858633160591125e-01,0.000000000000000000e+00,-1.305547475814819336e+00,-1.725656986236572266e+00,-1.203787699341773987e-01,9.724286198616027832e-02,5.360571742057800293e-01,-6.081169247627258301e-01,0.000000000000000000e+00,0.000000000000000000e+00,0.000000000000000000e+00,9.947385787963867188e-01,-2.775547206401824951e-01,1.733278632164001465e-01,-8.140570521354675293e-01,0.000000000000000000e+00
4.633066356182098389e-01,-5.292693972587585449e-01,6.680946946144104004e-01,-7.796661257743835449e-01,4.292057156562805176e-01,6.507423520088195801e-01,9.022651910781860352e-01,4.252766668796539307e-01,-8.858315348625183105e-01,0.000000000000000000e+00,4.423254355788230896e-02,0.000000000000000000e+00,-7.189314961433410645e-01,5.034061670303344727e-01,-1.726729631423950195e+00,-1.101574182510375977e+00,8.685933351516723633e-01,-4.413755238056182861e-01,-2.765012681484222412e-01,3.386958241462707520e-01,7.395700216293334961e-01,-1.810625791549682617e-01,2.655982673168182373e-01,1.736009865999221802e-01,5.558558702468872070e-01,1.434791326522827148e+00,9.860771298408508301e-01,7.651081085205078125e-01,9.569973349571228027e-01,-1.503143310546875000e-01,1.000000000000000000e+00
-8.767458796501159668e-01,9.859156608581542969e-01,1.935784071683883667e-01,-8.583822250366210938e-01,9.264592528343200684e-01,1.107371449470520020e+00,-3.048976324498653412e-02,-1.204475685954093933e-01,6.122246384620666504e-01,4.950958192348480225e-01,-7.948185503482818604e-02,-5.994945168495178223e-01,4.460746943950653076e-01,2.037868052721023560e-01,0.000000000000000000e+00,0.000000000000000000e+00,-7.301504611968994141e-01,1.762758642435073853e-01,1.423618197441101074e-01,-3.361246883869171143e-01,-6.022866368293762207e-01,-9.782736897468566895e-01,6.128275394439697266e-01,3.505907654762268066e-01,4.651115238666534424e-01,1.552921235561370850e-01,1.012717410922050476e-01,8.646038174629211426e-02,-3.033436089754104614e-02,3.295865058898925781e-01,1.000000000000000000e+00
6.943240761756896973e-01,-3.227096199989318848e-01,6.757689714431762695e-01,1.425206754356622696e-02,-1.041597485542297363e+00,-7.200404405593872070e-01,3.268847987055778503e-02,-2.444323152303695679e-01,-5.240412950515747070e-01,-2.378515452146530151e-01,1.556809991598129272e-01,1.037319973111152649e-01,-1.307971596717834473e+00,2.450542896986007690e-01,1.161754876375198364e-01,0.000000000000000000e+00,4.857268035411834717e-01,-2.303766608238220215e-01,-1.871166080236434937e-01,4.437085986137390137e-02,1.163108199834823608e-01,-3.011199533939361572e-01,-1.501868724822998047e+00,9.224150329828262329e-02,0.000000000000000000e+00,1.875993013381958008e-01,-1.851955205202102661e-01,-5.905914306640625000e-01,6.171647310256958008e-01,-1.296397298574447632e-01,1.000000000000000000e+00
1.661140769720077515e-01,-9.446547627449035645e-01,-5.220541357994079590e-01,3.856470286846160889e-01,2.282710969448089600e-01,1.456882357597351074e-01,5.943204760551452637e-01,-9.895178675651550293e-01,6.247314065694808960e-02,-1.350090622901916504e+00,-5.791976451873779297e-01,0.000000000000000000e+00,7.413610219955444336e-01,-1.870778352022171021e-01,8.595047593116760254e-01,-1.300096273422241211e+00,-2.423185110092163086e-01,-8.997321724891662598e-01,-1.380493491888046265e-01,6.834881901741027832e-01,3.359158933162689209e-01,4.854644238948822021e-01,2.030200809240341187e-01,3.143354356288909912e-01,-3.445855677127838135e-01,5.450777411460876465e-01,0.000000000000000000e+00,2.557038664817810059e-01,4.841468930244445801e-01,6.763152480125427246e-01,0.000000000000000000e+00
2.430079430341720581e-01,-4.679653644561767578e-01,-2.329300880432128906e+00,1.439831107854843140e-01,0.000000000000000000e+00,-3.314356133341789246e-02,3.967519700527191162e-01,-6.512609869241714478e-02,0.000000000000000000e+00,-2.536331117153167725e-01,-1.272570371627807617e+00,6.187806725502014160e-01,2.871189713478088379e-01,-5.001212954521179199e-01,0.000000000000000000e+00,-3.278545141220092773e-01,-3.913241028785705566e-01,-3.273430764675140381e-01,0.000000000000000000e+00,0.000000000000000000e+00,1.738976836204528809e-01,-2.610239386558532715e-01,9.073475003242492676e-01,-9.295840263366699219e-01,-2.778125703334808350e-01,-2.096229940652847290e-01,-1.043507218360900879e+00,-1.970691382884979248e-01,-1.566441953182220459e-01,5.253012180328369141e-01,0.000000000000000000e+00
0.000000000000000000e+00,0.000000000000000000e+00,9.233322739601135254e-02,1.290047168731689453e-01,8.207195997238159180e-02,0.000000000000000000e+00,-2.995266616344451904e-01,8.367877006530761719e-01,0.000000000000000000e+00,6.306472420692443848e-01,-1.136181652545928955e-01,7.545485347509384155e-02,7.126523554325103760e-02,9.278817474842071533e-02,1.119565367698669434e-01,7.370922714471817017e-02,-8.507258892059326172e-01,2.323813587427139282e-01,0.000000000000000000e+00,7.013675570487976074e-02,9.497887641191482544e-02,-6.734551787376403809e-01,9.108288586139678955e-02,-4.558659344911575317e-02,6.496801972389221191e-01,5.330941081047058105e-01,4.096579849720001221e-01,1.151097416877746582e+00,2.005381137132644653e-01,-6.793131828308105469e-01,1.000000000000000000e+00
4.945085346698760986e-01,5.347836017608642578e-01,-2.088126689195632935e-01,8.075711727142333984e-01,-1.638752341270446777e+00,7.317184209823608398e-01,-2.480348050594329834e-01,-3.205884695053100586e-01,5.196825414896011353e-02,3.657450377941131592e-01,2.447280585765838623e-01,-4.294171333312988281e-01,-1.270252466201782227e-01,1.112305819988250732e-01,6.074188947677612305e-01,1.263012550771236420e-02,-9.075051546096801758e-01,-1.287368088960647583e-01,-5.219605565071105957e-01,1.444324851036071777e-01,2.333066910505294800e-01,-5.759091377258300781e-01,0.000000000000000000e+00,-9.885084033012390137e-01,6.615424752235412598e-01,-3.273195624351501465e-01,-4.900679588317871094e-01,4.997209906578063965e-01,-5.639359951019287109e-01,0.000000000000000000e+00,1.000000000000000000e+00
1.116983592510223389e-01,0.000000000000000000e+00,-1.242532491683959961e+00,-4.508129358291625977e-01,-8.496287465095520020e-01,6.396512985229492188e-01,-1.059103086590766907e-01,-1.922651380300521851e-01,-6.137936115264892578e-01,1.315227597951889038e-01,1.329774737358093262e+00,-5.976116657257080078e-01,-2.636809945106506348e-01,1.085504055023193359e+00,-2.725083827972412109e-01,3.068447345867753029e-03,1.675075590610504150e-01,1.135736480355262756e-01,-7.519105076789855957e-01,-2.548279762268066406e-01,-4.456705879420042038e-03,5.364382266998291016e-01,6.268821954727172852e-01,2.406805939972400665e-02,-4.028973281383514404e-01,8.778816461563110352e-01,1.181393027305603027e+00,-4.594193100929260254e-01,-2.361516281962394714e-02,-2.671760022640228271e-01,1.000000000000000000e+00
-6.361356377601623535e-01,0.000000000000000000e+00,3.197254836559295654e-01,0.000000000000000000e+00,3.272789120674133301e-01,8.479578495025634766e-01,6.039150357246398926e-01,-1.986986398696899414e-01,-1.179464340209960938e+00,8.125148415565490723e-01,1.076454162597656250e+00,4.812427461147308350e-01,-1.050853729248046875e+00,9.303699433803558350e-02,4.686544835567474365e-01,-7.798744738101959229e-02,-3.660988807678222656e-02,-3.507843315601348877e-01,6.656788587570190430e-01,1.293384730815887451e-01,3.427563607692718506e-01,0.000000000000000000e+00,-5.918406248092651367e-01,1.214408159255981445e+00,0.000000000000000000e+00,8.134023547172546387e-01,4.776604473590850830e-01,6.713131666183471680e-01,8.000657558441162109e-01,-1.169011831283569336e+00,1.000000000000000000e+00
4.134794473648071289e-01,4.860771000385284424e-01,-2.586820363998413086e+00,-1.120181903243064880e-01,1.519755482673645020e+00,1.012171268463134766e+00,0.000000000000000000e+00,-1.327991366386413574e+00,0.000000000000000000e+00,-1.210525393486022949e+00,1.618627309799194336e-01,8.879908174276351929e-02,4.621362984180450439e-01,1.247432827949523926e+00,1.189295530319213867e+00,1.383234143257141113e+00,1.323802709579467773e+00,4.093304276466369629e-01,-1.113631963729858398e+00,-1.984390616416931152e+00,-3.805661499500274658e-01,3.598929941654205322e-01,1.177107095718383789e+00,-3.200584352016448975e-01,3.133625388145446777e-01,1.648765563964843750e+00,1.766242742538452148e+00,-3.315364122390747070e-01,-2.102684020996093750e+00,2.470829010009765625e+00,1.000000000000000000e+00
5.181958079338073730e-01,0.000000000000000000e+00,-8.263590931892395020e-01,9.128564596176147461e-02,3.493078649044036865e-01,-7.274004220962524414e-01,3.307541459798812866e-02,1.577181816101074219e-01,-1.262868046760559082e-01,-2.280190438032150269e-01,-7.809069156646728516e-01,3.669656813144683838e-01,-4.738473519682884216e-02,-1.577263772487640381e-01,1.260735690593719482e-01,1.502977591007947922e-02,0.000000000000000000e+00,1.317826509475708008e-01,1.571337133646011353e-01,0.000000000000000000e+00,-1.214353963732719421e-01,-7.672761678695678711e-01,3.250187337398529053e-01,-4.011363163590431213e-02,-6.201316714286804199e-01,-2.745353877544403076e-01,3.757483512163162231e-02,-7.952584624290466309e-01,1.429821848869323730e-01,3.672628700733184814e-01,1.000000000000000000e+00
4.199706912040710449e-01,1.351695060729980469e-01,9.521176218986511230e-01,-8.257181644439697266e-01,-1.241980671882629395e+00,-1.251879781484603882e-01,-1.531118899583816528e-01,-6.739937067031860352e-01,-7.404819726943969727e-01,0.000000000000000000e+00,1.423198580741882324e-01,0.000000000000000000e+00,-6.557908654212951660e-01,1.150303110480308533e-01,-2.264420986175537109e-01,1.000540144741535187e-02,3.008798360824584961e-01,-4.938293993473052979e-01,-6.769378781318664551e-01,8.133143782615661621e-01,-5.709538459777832031e-01,8.100947141647338867e-01,-6.198027729988098145e-01,-1.056813225150108337e-01,9.852632284164428711e-01,-3.161187097430229187e-02,-4.294349551200866699e-01,-7.080360054969787598e-01,8.465926349163055420e-02,3.730086088180541992e-01,1.000000000000000000e+00
9.319096207618713379e-01,-1.174485012888908386e-01,0.000000000000000000e+00,-4.973102509975433350e-01,7.766312956809997559e-01,-9.336698651313781738e-01,-6.440901160240173340e-01,9.473126530647277832e-01,2.714640498161315918e-01,4.894927144050598145e-01,0.000000000000000000e+00,-1.277917981147766113e+00,-1.135350018739700317e-01,-1.313611149787902832e+00,7.294198274612426758e-01,4.852113127708435059e-01,-1.689655780792236328e-01,1.301135867834091187e-01,0.000000000000000000e+00,-1.426739931106567383e+00,-7.139709591865539551e-02,6.493702530860900879e-01,-3.701220080256462097e-02,0.000000000000000000e+00,-2.979670166969299316e-01,-1.041550278663635254e+00,-2.350140661001205444e-01,-2.928347289562225342e-01,-6.130962371826171875e-01,5.320375561714172363e-01,0.000000000000000000e+00
2.752406001091003418e-01,-1.497636079788208008e+00,-2.863042950630187988e-01,-3.461707234382629395e-01,2.541502416133880615e-01,5.171450376510620117e-01,4.043752849102020264e-01,3.017815947532653809e-01,-1.209854841232299805e+00,2.163615971803665161e-01,1.236851811408996582e+00,-3.069019317626953125e-02,-5.392004847526550293e-01,-2.395113706588745117e-01,1.981063559651374817e-02,1.586597561836242676e-01,1.214370224624872208e-02,4.808915257453918457e-01,-4.032296240329742432e-01,7.852669954299926758e-01,-3.103982806205749512e-01,-1.623358577489852905e-01,6.620966196060180664e-01,2.723488211631774902e-01,-6.721659749746322632e-02,8.972443938255310059e-01,8.962234854698181152e-01,9.947130680084228516e-01,1.392872929573059082e-01,-9.211935997009277344e-01,1.000000000000000000e+00
1.998890161514282227e+00,4.118363261222839355e-01,2.529774308204650879e-01,1.385802388191223145e+00,1.361742496490478516e+00,-1.752992272377014160e+00,1.311989903450012207e+00,1.093630075454711914e+00,3.414644673466682434e-02,7.473921179771423340e-01,-8.119311332702636719e-01,-9.319136291742324829e-02,2.320994853973388672e+00,-5.172402039170265198e-02,8.495595455169677734e-01,-1.410978734493255615e-01,-1.618332266807556152e+00,2.040875434875488281e+00,6.114324331283569336e-01,0.000000000000000000e+00,7.044752836227416992e-01,-2.087276935577392578e+00,2.351516008377075195e+00,-5.869343876838684082e-01,-5.178021192550659180e-01,-2.050444126129150391e+00,-3.933638706803321838e-02,-1.225264787673950195e+00,-1.695523381233215332e+00,2.636277914047241211e+00,1.000000000000000000e+00
0.000000000000000000e+00,0.000000000000000000e+00,-3.067008256912231445e-01,-4.232346415519714355e-01,6.194386258721351624e-02,-5.892108678817749023e-01,1.269578218460083008e+00,-2.933340370655059814e-01,3.622807264328002930e-01,0.000000000000000000e+00,-2.470432072877883911e-01,-1.102427601814270020e+00,-2.289238423109054565e-01,1.269042491912841797e-01,-5.857121348381042480e-01,-4.849923849105834961e-01,1.501524746417999268e-01,3.460122048854827881e-01,-1.120167672634124756e-01,-5.697166919708251953e-01,-6.142446994781494141e-01,2.363042719662189484e-02,-3.636746704578399658e-01,-2.874382138252258301e-01,-6.748349666595458984e-01,-1.311291754245758057e-01,-4.313164353370666504e-01,-5.403553843498229980e-01,3.385196626186370850e-01,-1.079649329185485840e+00,1.000000000000000000e+00
-4.649720489978790283e-01,2.308310009539127350e-02,-2.452808618545532227e-01,-4.472293257713317871e-01,7.979838848114013672e-01,-5.918460488319396973e-01,-5.366343259811401367e-01,0.000000000000000000e+00,-2.987926602363586426e-01,-7.930432558059692383e-01,-1.815873682498931885e-01,9.212751984596252441e-01,-8.951648473739624023e-01,3.863450884819030762e-02,0.000000000000000000e+00,-9.602516889572143555e-01,-2.930429298430681229e-03,-2.844406962394714355e-01,9.596190452575683594e-01,1.101983547210693359e+00,-2.310024388134479523e-02,2.426706701517105103e-01,5.001006722450256348e-01,-2.226025052368640900e-02,-3.819166719913482666e-01,-3.772562444210052490e-01,5.508404970169067383e-01,-7.818027138710021973e-01,5.590105056762695312e-01,-6.952889561653137207e-01,1.000000000000000000e+00
4.374618232250213623e-01,4.417142271995544434e-02,-3.269945979118347168e-01,-3.944450616836547852e-01,-7.600751519203186035e-02,6.402217149734497070e-01,3.702185153961181641e-01,0.000000000000000000e+00,3.370005786418914795e-01,0.000000000000000000e+00,9.885644912719726562e-01,-1.080116033554077148e+00,2.367418408393859863e-01,8.883594274520874023e-01,-1.030801773071289062e+00,6.087321043014526367e-01,1.618454456329345703e-01,1.299233913421630859e+00,-7.427864670753479004e-01,-3.824117183685302734e-01,-9.596546888351440430e-01,-1.901246458292007446e-01,2.006886720657348633e+00,-4.556290805339813232e-01,5.473511219024658203e-01,7.812066078186035156e-01,1.697703003883361816e+00,-8.362162709236145020e-01,-3.850837051868438721e-01,-4.942384660243988037e-01,1.000000000000000000e+00
-4.514247477054595947e-01,-4.002489149570465088e-01,1.250981688499450684e-01,-7.295645475387573242e-01,3.466253280639648438e-01,-3.374454975128173828e-01,0.000000000000000000e+00,-2.892166972160339355e-01,3.778954744338989258e-01,1.666424125432968140e-01,0.000000000000000000e+00,-3.735837936401367188e-01,-2.974165976047515869e-02,-6.822064518928527832e-01,-7.868320941925048828e-01,1.944687664508819580e-01,6.796624064445495605e-01,8.903083801269531250e-01,6.150559782981872559e-01,-1.075640395283699036e-01,-4.780705869197845459e-01,-1.451740693300962448e-02,6.271260231733322144e-02,2.501607174053788185e-03,-2.814667522907257080e-01,-7.921261787414550781e-01,-4.291664958000183105e-01,-5.588382948189973831e-03,-1.151716783642768860e-01,-4.120401740074157715e-01,1.000000000000000000e+00
